##PRODUCT: Acetone_2
##SAMPLE NAME: No System
##DATE: 23-Feb-2009
##TIME: 17:20:18
##Instrument S/N: 61230712
##OPERATOR ID: 180929
##SPECTROPHOTOMETER: NIRSystems Model 6500 
##AMPLIFIER: Reflectance
##NUMBER OF CONSTITUENTS: 0
##TRANSDUCER: 1,     0.000092
##TRANSDUCER: 2,     0.000049
##TRANSDUCER: 3,     2.927320
##SPECTRUM:
1100.00,  2.024888
1102.00,  2.024958
1104.00,  2.025406
1106.00,  2.025796
1108.00,  2.025346
1110.00,  2.025342
1112.00,  2.024863
1114.00,  2.024798
1116.00,  2.025149
1118.00,  2.025390
1120.00,  2.025539
1122.00,  2.026276
1124.00,  2.026188
1126.00,  2.025752
1128.00,  2.026094
1130.00,  2.026519
1132.00,  2.026349
1134.00,  2.026838
1136.00,  2.026440
1138.00,  2.027017
1140.00,  2.026519
1142.00,  2.027017
1144.00,  2.026871
1146.00,  2.026933
1148.00,  2.026941
1150.00,  2.026862
1152.00,  2.027264
1154.00,  2.027093
1156.00,  2.027686
1158.00,  2.026898
1160.00,  2.027628
1162.00,  2.028053
1164.00,  2.027744
1166.00,  2.027658
1168.00,  2.027390
1170.00,  2.028143
1172.00,  2.028247
1174.00,  2.028275
1176.00,  2.027918
1178.00,  2.027668
1180.00,  2.028063
1182.00,  2.027938
1184.00,  2.028389
1186.00,  2.028953
1188.00,  2.028115
1190.00,  2.028770
1192.00,  2.028388
1194.00,  2.029035
1196.00,  2.029141
1198.00,  2.028219
1200.00,  2.028563
1202.00,  2.028816
1204.00,  2.028683
1206.00,  2.028691
1208.00,  2.029135
1210.00,  2.029003
1212.00,  2.028698
1214.00,  2.029117
1216.00,  2.028888
1218.00,  2.029190
1220.00,  2.028674
1222.00,  2.029211
1224.00,  2.028870
1226.00,  2.028732
1228.00,  2.028577
1230.00,  2.028343
1232.00,  2.028195
1234.00,  2.028288
1236.00,  2.028661
1238.00,  2.028493
1240.00,  2.028020
1242.00,  2.028570
1244.00,  2.028426
1246.00,  2.028412
1248.00,  2.028541
1250.00,  2.028937
1252.00,  2.028786
1254.00,  2.027940
1256.00,  2.028031
1258.00,  2.028394
1260.00,  2.029189
1262.00,  2.029104
1264.00,  2.028477
1266.00,  2.028208
1268.00,  2.028438
1270.00,  2.028873
1272.00,  2.028573
1274.00,  2.028630
1276.00,  2.028657
1278.00,  2.028468
1280.00,  2.028869
1282.00,  2.029052
1284.00,  2.029002
1286.00,  2.028687
1288.00,  2.029685
1290.00,  2.028716
1292.00,  2.029052
1294.00,  2.029150
1296.00,  2.028574
1298.00,  2.028702
1300.00,  2.028625
1302.00,  2.029003
1304.00,  2.029265
1306.00,  2.028428
1308.00,  2.028560
1310.00,  2.029174
1312.00,  2.029052
1314.00,  2.029588
1316.00,  2.028937
1318.00,  2.029243
1320.00,  2.028414
1322.00,  2.029234
1324.00,  2.028699
1326.00,  2.028639
1328.00,  2.029293
1330.00,  2.029472
1332.00,  2.029912
1334.00,  2.029799
1336.00,  2.029313
1338.00,  2.029014
1340.00,  2.029830
1342.00,  2.030354
1344.00,  2.030052
1346.00,  2.030463
1348.00,  2.030397
1350.00,  2.030366
1352.00,  2.031345
1354.00,  2.032533
1356.00,  2.032241
1358.00,  2.032049
1360.00,  2.032615
1362.00,  2.032605
1364.00,  2.033106
1366.00,  2.032879
1368.00,  2.033503
1370.00,  2.032214
1372.00,  2.032128
1374.00,  2.031770
1376.00,  2.032250
1378.00,  2.032125
1380.00,  2.031415
1382.00,  2.031202
1384.00,  2.031379
1386.00,  2.031353
1388.00,  2.031141
1390.00,  2.030868
1392.00,  2.031016
1394.00,  2.031017
1396.00,  2.031595
1398.00,  2.030710
1400.00,  2.031003
1402.00,  2.030802
1404.00,  2.030541
1406.00,  2.030823
1408.00,  2.030106
1410.00,  2.029630
1412.00,  2.030240
1414.00,  2.029734
1416.00,  2.029741
1418.00,  2.028950
1420.00,  2.028219
1422.00,  2.027529
1424.00,  2.027782
1426.00,  2.028160
1428.00,  2.028203
1430.00,  2.027775
1432.00,  2.028303
1434.00,  2.027973
1436.00,  2.027062
1438.00,  2.027755
1440.00,  2.028061
1442.00,  2.028019
1444.00,  2.027801
1446.00,  2.027144
1448.00,  2.027407
1450.00,  2.027175
1452.00,  2.026803
1454.00,  2.027732
1456.00,  2.027345
1458.00,  2.027505
1460.00,  2.026786
1462.00,  2.026667
1464.00,  2.026662
1466.00,  2.026734
1468.00,  2.026033
1470.00,  2.025823
1472.00,  2.025045
1474.00,  2.025225
1476.00,  2.025766
1478.00,  2.025157
1480.00,  2.024818
1482.00,  2.025592
1484.00,  2.025858
1486.00,  2.025310
1488.00,  2.026321
1490.00,  2.027076
1492.00,  2.027053
1494.00,  2.026184
1496.00,  2.025208
1498.00,  2.024450
1500.00,  2.024187
1502.00,  2.023435
1504.00,  2.022427
1506.00,  2.021813
1508.00,  2.021487
1510.00,  2.021152
1512.00,  2.020475
1514.00,  2.020661
1516.00,  2.018889
1518.00,  2.019816
1520.00,  2.019050
1522.00,  2.018945
1524.00,  2.019830
1526.00,  2.020555
1528.00,  2.021513
1530.00,  2.023562
1532.00,  2.023678
1534.00,  2.025645
1536.00,  2.027127
1538.00,  2.028686
1540.00,  2.028622
1542.00,  2.029539
1544.00,  2.030035
1546.00,  2.031105
1548.00,  2.032854
1550.00,  2.033578
1552.00,  2.033518
1554.00,  2.033199
1556.00,  2.034325
1558.00,  2.035683
1560.00,  2.035579
1562.00,  2.035966
1564.00,  2.035354
1566.00,  2.036042
1568.00,  2.036217
1570.00,  2.036258
1572.00,  2.036913
1574.00,  2.036633
1576.00,  2.036317
1578.00,  2.037054
1580.00,  2.036282
1582.00,  2.035470
1584.00,  2.035534
1586.00,  2.036131
1588.00,  2.035727
1590.00,  2.035365
1592.00,  2.034709
1594.00,  2.034450
1596.00,  2.033959
1598.00,  2.034159
1600.00,  2.033955
1602.00,  2.034971
1604.00,  2.034484
1606.00,  2.034497
1608.00,  2.033330
1610.00,  2.034121
1612.00,  2.034590
1614.00,  2.034537
1616.00,  2.034727
1618.00,  2.034141
1620.00,  2.034288
1622.00,  2.034454
1624.00,  2.033359
1626.00,  2.033303
1628.00,  2.033108
1630.00,  2.033506
1632.00,  2.034159
1634.00,  2.033613
1636.00,  2.033214
1638.00,  2.032933
1640.00,  2.032842
1642.00,  2.032310
1644.00,  2.032483
1646.00,  2.032437
1648.00,  2.032989
1650.00,  2.032946
1652.00,  2.032044
1654.00,  2.032227
1656.00,  2.032732
1658.00,  2.032662
1660.00,  2.032339
1662.00,  2.032196
1664.00,  2.031741
1666.00,  2.031592
1668.00,  2.031263
1670.00,  2.031442
1672.00,  2.031755
1674.00,  2.031937
1676.00,  2.031098
1678.00,  2.031204
1680.00,  2.031668
1682.00,  2.030303
1684.00,  2.031289
1686.00,  2.032008
1688.00,  2.030232
1690.00,  2.030150
1692.00,  2.030532
1694.00,  2.029587
1696.00,  2.029980
1698.00,  2.030350
1700.00,  2.029645
1702.00,  2.029446
1704.00,  2.028582
1706.00,  2.028673
1708.00,  2.028429
1710.00,  2.029353
1712.00,  2.029153
1714.00,  2.028805
1716.00,  2.029664
1718.00,  2.029097
1720.00,  2.027841
1722.00,  2.028042
1724.00,  2.028478
1726.00,  2.027945
1728.00,  2.029270
1730.00,  2.028762
1732.00,  2.027911
1734.00,  2.028214
1736.00,  2.028328
1738.00,  2.028604
1740.00,  2.027721
1742.00,  2.027498
1744.00,  2.027922
1746.00,  2.027179
1748.00,  2.026948
1750.00,  2.026425
1752.00,  2.026883
1754.00,  2.027115
1756.00,  2.027179
1758.00,  2.026707
1760.00,  2.027232
1762.00,  2.026877
1764.00,  2.027788
1766.00,  2.026621
1768.00,  2.027061
1770.00,  2.027369
1772.00,  2.026839
1774.00,  2.027058
1776.00,  2.027227
1778.00,  2.025699
1780.00,  2.026645
1782.00,  2.027004
1784.00,  2.026297
1786.00,  2.026627
1788.00,  2.026173
1790.00,  2.025470
1792.00,  2.026325
1794.00,  2.026410
1796.00,  2.025990
1798.00,  2.026042
1800.00,  2.026615
1802.00,  2.026912
1804.00,  2.026080
1806.00,  2.026522
1808.00,  2.027200
1810.00,  2.026716
1812.00,  2.027616
1814.00,  2.027546
1816.00,  2.026290
1818.00,  2.027839
1820.00,  2.027744
1822.00,  2.027969
1824.00,  2.028440
1826.00,  2.027811
1828.00,  2.027066
1830.00,  2.028401
1832.00,  2.028467
1834.00,  2.029059
1836.00,  2.030179
1838.00,  2.029627
1840.00,  2.028965
1842.00,  2.029670
1844.00,  2.029321
1846.00,  2.029584
1848.00,  2.027945
1850.00,  2.028382
1852.00,  2.027856
1854.00,  2.026547
1856.00,  2.028028
1858.00,  2.027440
1860.00,  2.028607
1862.00,  2.027814
1864.00,  2.028391
1866.00,  2.028915
1868.00,  2.028676
1870.00,  2.028904
1872.00,  2.029412
1874.00,  2.028986
1876.00,  2.029378
1878.00,  2.028706
1880.00,  2.027598
1882.00,  2.027282
1884.00,  2.026700
1886.00,  2.027286
1888.00,  2.028222
1890.00,  2.027389
1892.00,  2.026551
1894.00,  2.027475
1896.00,  2.028187
1898.00,  2.027224
1900.00,  2.027983
1902.00,  2.026490
1904.00,  2.027090
1906.00,  2.026471
1908.00,  2.026926
1910.00,  2.026422
1912.00,  2.026117
1914.00,  2.025052
1916.00,  2.025805
1918.00,  2.024598
1920.00,  2.025267
1922.00,  2.023556
1924.00,  2.024334
1926.00,  2.022989
1928.00,  2.022340
1930.00,  2.022362
1932.00,  2.020923
1934.00,  2.021360
1936.00,  2.021862
1938.00,  2.020293
1940.00,  2.021391
1942.00,  2.021138
1944.00,  2.020322
1946.00,  2.019987
1948.00,  2.021133
1950.00,  2.021309
1952.00,  2.020765
1954.00,  2.021395
1956.00,  2.020746
1958.00,  2.021311
1960.00,  2.020445
1962.00,  2.020507
1964.00,  2.018665
1966.00,  2.018747
1968.00,  2.018952
1970.00,  2.020350
1972.00,  2.019862
1974.00,  2.019296
1976.00,  2.019021
1978.00,  2.019669
1980.00,  2.019550
1982.00,  2.018151
1984.00,  2.019444
1986.00,  2.020427
1988.00,  2.018505
1990.00,  2.020046
1992.00,  2.020362
1994.00,  2.019759
1996.00,  2.019934
1998.00,  2.019494
2000.00,  2.019643
2002.00,  2.019187
2004.00,  2.018741
2006.00,  2.018528
2008.00,  2.020134
2010.00,  2.019892
2012.00,  2.019825
2014.00,  2.020313
2016.00,  2.020968
2018.00,  2.019990
2020.00,  2.020924
2022.00,  2.020201
2024.00,  2.018904
2026.00,  2.018778
2028.00,  2.019042
2030.00,  2.019781
2032.00,  2.020461
2034.00,  2.020092
2036.00,  2.020120
2038.00,  2.019358
2040.00,  2.020064
2042.00,  2.020407
2044.00,  2.021350
2046.00,  2.019759
2048.00,  2.019524
2050.00,  2.021109
2052.00,  2.021904
2054.00,  2.020995
2056.00,  2.020818
2058.00,  2.021676
2060.00,  2.021965
2062.00,  2.021302
2064.00,  2.020012
2066.00,  2.019874
2068.00,  2.020941
2070.00,  2.020828
2072.00,  2.019897
2074.00,  2.022599
2076.00,  2.021518
2078.00,  2.021896
2080.00,  2.020771
2082.00,  2.020100
2084.00,  2.021249
2086.00,  2.020797
2088.00,  2.021737
2090.00,  2.021349
2092.00,  2.020473
2094.00,  2.020599
2096.00,  2.019455
2098.00,  2.020957
2100.00,  2.020989
2102.00,  2.020506
2104.00,  2.021420
2106.00,  2.020957
2108.00,  2.021294
2110.00,  2.020337
2112.00,  2.022379
2114.00,  2.019186
2116.00,  2.021802
2118.00,  2.022748
2120.00,  2.021976
2122.00,  2.020961
2124.00,  2.018733
2126.00,  2.018138
2128.00,  2.018930
2130.00,  2.019960
2132.00,  2.019890
2134.00,  2.020107
2136.00,  2.020921
2138.00,  2.020087
2140.00,  2.020508
2142.00,  2.021494
2144.00,  2.020048
2146.00,  2.021419
2148.00,  2.022445
2150.00,  2.019602
2152.00,  2.018996
2154.00,  2.018090
2156.00,  2.018226
2158.00,  2.020754
2160.00,  2.019616
2162.00,  2.018843
2164.00,  2.020055
2166.00,  2.018051
2168.00,  2.020863
2170.00,  2.018290
2172.00,  2.020816
2174.00,  2.019639
2176.00,  2.019361
2178.00,  2.018761
2180.00,  2.020053
2182.00,  2.021623
2184.00,  2.018583
2186.00,  2.018831
2188.00,  2.020648
2190.00,  2.018443
2192.00,  2.016303
2194.00,  2.016477
2196.00,  2.020096
2198.00,  2.017467
2200.00,  2.016891
2202.00,  2.016538
2204.00,  2.016700
2206.00,  2.017133
2208.00,  2.017272
2210.00,  2.018104
2212.00,  2.016388
2214.00,  2.014251
2216.00,  2.015134
2218.00,  2.016848
2220.00,  2.017397
2222.00,  2.017433
2224.00,  2.017806
2226.00,  2.017115
2228.00,  2.017822
2230.00,  2.018478
2232.00,  2.014791
2234.00,  2.020051
2236.00,  2.020035
2238.00,  2.020884
2240.00,  2.019893
2242.00,  2.019179
2244.00,  2.020940
2246.00,  2.018292
2248.00,  2.020817
2250.00,  2.016696
2252.00,  2.019830
2254.00,  2.019597
2256.00,  2.021018
2258.00,  2.015210
2260.00,  2.021720
2262.00,  2.021351
2264.00,  2.020294
2266.00,  2.024616
2268.00,  2.024327
2270.00,  2.023928
2272.00,  2.023102
2274.00,  2.018987
2276.00,  2.021738
2278.00,  2.020474
2280.00,  2.024063
2282.00,  2.023575
2284.00,  2.020322
2286.00,  2.020830
2288.00,  2.023192
2290.00,  2.023996
2292.00,  2.026130
2294.00,  2.023692
2296.00,  2.027144
2298.00,  2.029710
2300.00,  2.024197
2302.00,  2.022498
2304.00,  2.026523
2306.00,  2.022931
2308.00,  2.025988
2310.00,  2.024731
2312.00,  2.022378
2314.00,  2.024137
2316.00,  2.026501
2318.00,  2.022951
2320.00,  2.022387
2322.00,  2.024055
2324.00,  2.025886
2326.00,  2.023847
2328.00,  2.024872
2330.00,  2.019495
2332.00,  2.023180
2334.00,  2.025927
2336.00,  2.023791
2338.00,  2.024107
2340.00,  2.025708
2342.00,  2.026935
2344.00,  2.022215
2346.00,  2.020658
2348.00,  2.021997
2350.00,  2.023968
2352.00,  2.025019
2354.00,  2.022309
2356.00,  2.024526
2358.00,  2.022590
2360.00,  2.022591
2362.00,  2.022959
2364.00,  2.021230
2366.00,  2.020307
2368.00,  2.021719
2370.00,  2.023124
2372.00,  2.017841
2374.00,  2.018947
2376.00,  2.020815
2378.00,  2.020413
2380.00,  2.022508
2382.00,  2.025262
2384.00,  2.025050
2386.00,  2.023464
2388.00,  2.023159
2390.00,  2.020502
2392.00,  2.021715
2394.00,  2.024445
2396.00,  2.020018
2398.00,  2.018852
2400.00,  2.017980
2402.00,  2.020568
2404.00,  2.017241
2406.00,  2.017178
2408.00,  2.016829
2410.00,  2.014263
2412.00,  2.017701
2414.00,  2.017848
2416.00,  2.021856
2418.00,  2.019820
2420.00,  2.020309
2422.00,  2.015676
2424.00,  2.018931
2426.00,  2.019937
2428.00,  2.017095
2430.00,  2.015760
2432.00,  2.017323
2434.00,  2.016433
2436.00,  2.021928
2438.00,  2.019835
2440.00,  2.015880
2442.00,  2.022127
2444.00,  2.019806
2446.00,  2.016945
2448.00,  2.019651
2450.00,  2.014172
2452.00,  2.016018
2454.00,  2.016150
2456.00,  2.021197
2458.00,  2.019937
2460.00,  2.018545
2462.00,  2.020436
2464.00,  2.018187
2466.00,  2.021062
2468.00,  2.020643
2470.00,  2.015776
2472.00,  2.019692
2474.00,  2.017871
2476.00,  2.015857
2478.00,  2.019199
2480.00,  2.018297
2482.00,  2.021954
2484.00,  2.012177
2486.00,  2.015449
2488.00,  2.018379
2490.00,  2.017294
2492.00,  2.016221
2494.00,  2.016957
2496.00,  2.019279
2498.00,  2.017060
##END

##PRODUCT: Acetone_2
##SAMPLE NAME: Lot_1202813
##DATE: 11-May-2012
##TIME: 14:11:58
##Instrument S/N: 6123
##OPERATOR ID: 180929
##SPECTROPHOTOMETER: NIRSystems Model 6500 
##AMPLIFIER: Reflectance
##NUMBER OF CONSTITUENTS: 0
##TRANSDUCER: 1,     0.000126
##TRANSDUCER: 2,     0.000023
##TRANSDUCER: 3,     2.927480
##SPECTRUM:
1100.00,  0.633102
1102.00,  0.633551
1104.00,  0.634032
1106.00,  0.634636
1108.00,  0.635298
1110.00,  0.636005
1112.00,  0.636755
1114.00,  0.637566
1116.00,  0.638395
1118.00,  0.639319
1120.00,  0.640196
1122.00,  0.641142
1124.00,  0.642085
1126.00,  0.643080
1128.00,  0.644140
1130.00,  0.645233
1132.00,  0.646291
1134.00,  0.647427
1136.00,  0.648509
1138.00,  0.649590
1140.00,  0.650627
1142.00,  0.651593
1144.00,  0.652585
1146.00,  0.653588
1148.00,  0.654507
1150.00,  0.655473
1152.00,  0.656481
1154.00,  0.657537
1156.00,  0.658698
1158.00,  0.659891
1160.00,  0.661146
1162.00,  0.662415
1164.00,  0.663632
1166.00,  0.664837
1168.00,  0.666038
1170.00,  0.667166
1172.00,  0.668256
1174.00,  0.669314
1176.00,  0.670334
1178.00,  0.671243
1180.00,  0.672137
1182.00,  0.672992
1184.00,  0.673785
1186.00,  0.674598
1188.00,  0.675382
1190.00,  0.676218
1192.00,  0.677055
1194.00,  0.677943
1196.00,  0.678863
1198.00,  0.679817
1200.00,  0.680831
1202.00,  0.681791
1204.00,  0.682797
1206.00,  0.683779
1208.00,  0.684748
1210.00,  0.685600
1212.00,  0.686467
1214.00,  0.687305
1216.00,  0.688064
1218.00,  0.688759
1220.00,  0.689378
1222.00,  0.689926
1224.00,  0.690331
1226.00,  0.690615
1228.00,  0.690815
1230.00,  0.690909
1232.00,  0.690934
1234.00,  0.690887
1236.00,  0.690799
1238.00,  0.690698
1240.00,  0.690611
1242.00,  0.690465
1244.00,  0.690372
1246.00,  0.690219
1248.00,  0.690128
1250.00,  0.690069
1252.00,  0.689994
1254.00,  0.689990
1256.00,  0.690050
1258.00,  0.690104
1260.00,  0.690184
1262.00,  0.690341
1264.00,  0.690556
1266.00,  0.690687
1268.00,  0.690938
1270.00,  0.691163
1272.00,  0.691436
1274.00,  0.691682
1276.00,  0.691911
1278.00,  0.692203
1280.00,  0.692516
1282.00,  0.692830
1284.00,  0.693156
1286.00,  0.693513
1288.00,  0.693821
1290.00,  0.694178
1292.00,  0.694526
1294.00,  0.694864
1296.00,  0.695249
1298.00,  0.695606
1300.00,  0.696022
1302.00,  0.696414
1304.00,  0.696813
1306.00,  0.697214
1308.00,  0.697677
1310.00,  0.698151
1312.00,  0.698596
1314.00,  0.699094
1316.00,  0.699574
1318.00,  0.700145
1320.00,  0.700710
1322.00,  0.701254
1324.00,  0.701887
1326.00,  0.702516
1328.00,  0.703153
1330.00,  0.703921
1332.00,  0.704708
1334.00,  0.705575
1336.00,  0.706530
1338.00,  0.707506
1340.00,  0.708577
1342.00,  0.709695
1344.00,  0.710824
1346.00,  0.711950
1348.00,  0.713081
1350.00,  0.714236
1352.00,  0.715336
1354.00,  0.716422
1356.00,  0.717519
1358.00,  0.718684
1360.00,  0.719870
1362.00,  0.721106
1364.00,  0.722331
1366.00,  0.723635
1368.00,  0.724827
1370.00,  0.726000
1372.00,  0.727089
1374.00,  0.728120
1376.00,  0.729157
1378.00,  0.730164
1380.00,  0.731254
1382.00,  0.732318
1384.00,  0.733425
1386.00,  0.734520
1388.00,  0.735579
1390.00,  0.736659
1392.00,  0.737651
1394.00,  0.738676
1396.00,  0.739647
1398.00,  0.740665
1400.00,  0.741730
1402.00,  0.742907
1404.00,  0.744028
1406.00,  0.745310
1408.00,  0.746708
1410.00,  0.748139
1412.00,  0.749678
1414.00,  0.751316
1416.00,  0.752959
1418.00,  0.754700
1420.00,  0.756386
1422.00,  0.758085
1424.00,  0.759755
1426.00,  0.761409
1428.00,  0.762927
1430.00,  0.764344
1432.00,  0.765554
1434.00,  0.766677
1436.00,  0.767532
1438.00,  0.768333
1440.00,  0.769147
1442.00,  0.769870
1444.00,  0.770556
1446.00,  0.771217
1448.00,  0.772035
1450.00,  0.772740
1452.00,  0.773474
1454.00,  0.774195
1456.00,  0.774911
1458.00,  0.775552
1460.00,  0.776275
1462.00,  0.776890
1464.00,  0.777543
1466.00,  0.778130
1468.00,  0.778727
1470.00,  0.779273
1472.00,  0.779865
1474.00,  0.780315
1476.00,  0.780535
1478.00,  0.780606
1480.00,  0.780490
1482.00,  0.780215
1484.00,  0.779655
1486.00,  0.779033
1488.00,  0.778337
1490.00,  0.777759
1492.00,  0.777122
1494.00,  0.776564
1496.00,  0.776257
1498.00,  0.776076
1500.00,  0.776101
1502.00,  0.776307
1504.00,  0.776652
1506.00,  0.777068
1508.00,  0.777598
1510.00,  0.778126
1512.00,  0.778621
1514.00,  0.778955
1516.00,  0.779152
1518.00,  0.779116
1520.00,  0.778864
1522.00,  0.778414
1524.00,  0.777680
1526.00,  0.776813
1528.00,  0.775908
1530.00,  0.774919
1532.00,  0.773848
1534.00,  0.772768
1536.00,  0.771665
1538.00,  0.770587
1540.00,  0.769533
1542.00,  0.768579
1544.00,  0.767696
1546.00,  0.766962
1548.00,  0.766325
1550.00,  0.765677
1552.00,  0.765237
1554.00,  0.764861
1556.00,  0.764553
1558.00,  0.764292
1560.00,  0.764132
1562.00,  0.763997
1564.00,  0.763916
1566.00,  0.763911
1568.00,  0.763859
1570.00,  0.763845
1572.00,  0.763938
1574.00,  0.764028
1576.00,  0.764145
1578.00,  0.764281
1580.00,  0.764381
1582.00,  0.764392
1584.00,  0.764588
1586.00,  0.764707
1588.00,  0.764796
1590.00,  0.764915
1592.00,  0.765066
1594.00,  0.765199
1596.00,  0.765317
1598.00,  0.765422
1600.00,  0.765597
1602.00,  0.765754
1604.00,  0.765975
1606.00,  0.766143
1608.00,  0.766376
1610.00,  0.766670
1612.00,  0.766980
1614.00,  0.767302
1616.00,  0.767706
1618.00,  0.768149
1620.00,  0.768599
1622.00,  0.769165
1624.00,  0.769738
1626.00,  0.770338
1628.00,  0.770975
1630.00,  0.771544
1632.00,  0.772170
1634.00,  0.772791
1636.00,  0.773320
1638.00,  0.773854
1640.00,  0.774475
1642.00,  0.775062
1644.00,  0.775708
1646.00,  0.776454
1648.00,  0.777410
1650.00,  0.778733
1652.00,  0.780287
1654.00,  0.782146
1656.00,  0.784412
1658.00,  0.786909
1660.00,  0.789470
1662.00,  0.792199
1664.00,  0.794837
1666.00,  0.797525
1668.00,  0.800252
1670.00,  0.802942
1672.00,  0.805759
1674.00,  0.808511
1676.00,  0.811046
1678.00,  0.813354
1680.00,  0.815199
1682.00,  0.816672
1684.00,  0.817833
1686.00,  0.818909
1688.00,  0.820059
1690.00,  0.821421
1692.00,  0.822918
1694.00,  0.824620
1696.00,  0.826417
1698.00,  0.828271
1700.00,  0.830035
1702.00,  0.831784
1704.00,  0.833589
1706.00,  0.835476
1708.00,  0.837418
1710.00,  0.839503
1712.00,  0.841455
1714.00,  0.843348
1716.00,  0.845076
1718.00,  0.846549
1720.00,  0.847713
1722.00,  0.848877
1724.00,  0.849793
1726.00,  0.850597
1728.00,  0.851278
1730.00,  0.851771
1732.00,  0.851971
1734.00,  0.851694
1736.00,  0.851179
1738.00,  0.850215
1740.00,  0.848988
1742.00,  0.847454
1744.00,  0.845729
1746.00,  0.843991
1748.00,  0.842378
1750.00,  0.840892
1752.00,  0.839626
1754.00,  0.838516
1756.00,  0.837609
1758.00,  0.837001
1760.00,  0.836522
1762.00,  0.836218
1764.00,  0.835913
1766.00,  0.835726
1768.00,  0.835524
1770.00,  0.835434
1772.00,  0.835312
1774.00,  0.835273
1776.00,  0.835297
1778.00,  0.835402
1780.00,  0.835568
1782.00,  0.835913
1784.00,  0.836202
1786.00,  0.836505
1788.00,  0.836769
1790.00,  0.837009
1792.00,  0.837203
1794.00,  0.837252
1796.00,  0.837276
1798.00,  0.837150
1800.00,  0.836963
1802.00,  0.836708
1804.00,  0.836280
1806.00,  0.835854
1808.00,  0.835447
1810.00,  0.835011
1812.00,  0.834573
1814.00,  0.834152
1816.00,  0.833790
1818.00,  0.833484
1820.00,  0.833243
1822.00,  0.833013
1824.00,  0.832814
1826.00,  0.832587
1828.00,  0.832347
1830.00,  0.832148
1832.00,  0.831923
1834.00,  0.831417
1836.00,  0.831118
1838.00,  0.830752
1840.00,  0.830261
1842.00,  0.829899
1844.00,  0.829535
1846.00,  0.829252
1848.00,  0.828889
1850.00,  0.828670
1852.00,  0.828415
1854.00,  0.828241
1856.00,  0.828170
1858.00,  0.828053
1860.00,  0.827919
1862.00,  0.827635
1864.00,  0.827463
1866.00,  0.827148
1868.00,  0.826860
1870.00,  0.826719
1872.00,  0.826723
1874.00,  0.826763
1876.00,  0.826837
1878.00,  0.827133
1880.00,  0.827533
1882.00,  0.828347
1884.00,  0.829554
1886.00,  0.831137
1888.00,  0.833323
1890.00,  0.836020
1892.00,  0.839221
1894.00,  0.842912
1896.00,  0.846901
1898.00,  0.851141
1900.00,  0.855476
1902.00,  0.859781
1904.00,  0.863918
1906.00,  0.867694
1908.00,  0.871013
1910.00,  0.874063
1912.00,  0.876727
1914.00,  0.879096
1916.00,  0.881164
1918.00,  0.882938
1920.00,  0.884415
1922.00,  0.885517
1924.00,  0.886275
1926.00,  0.886669
1928.00,  0.886749
1930.00,  0.886479
1932.00,  0.885720
1934.00,  0.884709
1936.00,  0.883492
1938.00,  0.882126
1940.00,  0.880354
1942.00,  0.878539
1944.00,  0.876899
1946.00,  0.875044
1948.00,  0.873171
1950.00,  0.871384
1952.00,  0.869619
1954.00,  0.868032
1956.00,  0.866565
1958.00,  0.865061
1960.00,  0.863903
1962.00,  0.862589
1964.00,  0.861390
1966.00,  0.860283
1968.00,  0.859016
1970.00,  0.857780
1972.00,  0.856591
1974.00,  0.855620
1976.00,  0.854531
1978.00,  0.853382
1980.00,  0.852587
1982.00,  0.851515
1984.00,  0.850758
1986.00,  0.849974
1988.00,  0.849283
1990.00,  0.848808
1992.00,  0.848273
1994.00,  0.847690
1996.00,  0.847458
1998.00,  0.847233
2000.00,  0.846990
2002.00,  0.846945
2004.00,  0.846787
2006.00,  0.846836
2008.00,  0.846899
2010.00,  0.847089
2012.00,  0.847440
2014.00,  0.847900
2016.00,  0.848511
2018.00,  0.849281
2020.00,  0.850382
2022.00,  0.851542
2024.00,  0.852762
2026.00,  0.854334
2028.00,  0.856009
2030.00,  0.857603
2032.00,  0.859594
2034.00,  0.861488
2036.00,  0.863349
2038.00,  0.865425
2040.00,  0.867375
2042.00,  0.869439
2044.00,  0.871545
2046.00,  0.873683
2048.00,  0.875778
2050.00,  0.877786
2052.00,  0.879571
2054.00,  0.881666
2056.00,  0.883337
2058.00,  0.885067
2060.00,  0.886600
2062.00,  0.888274
2064.00,  0.889773
2066.00,  0.891137
2068.00,  0.892503
2070.00,  0.893808
2072.00,  0.895080
2074.00,  0.896327
2076.00,  0.897526
2078.00,  0.898846
2080.00,  0.900194
2082.00,  0.901581
2084.00,  0.903108
2086.00,  0.904543
2088.00,  0.906079
2090.00,  0.907412
2092.00,  0.908769
2094.00,  0.909919
2096.00,  0.910868
2098.00,  0.911393
2100.00,  0.911605
2102.00,  0.911804
2104.00,  0.911903
2106.00,  0.911581
2108.00,  0.911151
2110.00,  0.910765
2112.00,  0.910057
2114.00,  0.909459
2116.00,  0.909082
2118.00,  0.908606
2120.00,  0.908384
2122.00,  0.908283
2124.00,  0.908404
2126.00,  0.908744
2128.00,  0.909031
2130.00,  0.909394
2132.00,  0.909693
2134.00,  0.909809
2136.00,  0.909820
2138.00,  0.909278
2140.00,  0.908446
2142.00,  0.906932
2144.00,  0.905064
2146.00,  0.903322
2148.00,  0.901838
2150.00,  0.900352
2152.00,  0.899519
2154.00,  0.899024
2156.00,  0.898969
2158.00,  0.898944
2160.00,  0.899041
2162.00,  0.898852
2164.00,  0.898553
2166.00,  0.898392
2168.00,  0.897940
2170.00,  0.897542
2172.00,  0.896968
2174.00,  0.896478
2176.00,  0.896543
2178.00,  0.896655
2180.00,  0.896975
2182.00,  0.897330
2184.00,  0.897414
2186.00,  0.897352
2188.00,  0.897061
2190.00,  0.896902
2192.00,  0.896834
2194.00,  0.896709
2196.00,  0.897249
2198.00,  0.897777
2200.00,  0.898418
2202.00,  0.899208
2204.00,  0.900153
2206.00,  0.901515
2208.00,  0.902955
2210.00,  0.904657
2212.00,  0.906530
2214.00,  0.908713
2216.00,  0.910828
2218.00,  0.913362
2220.00,  0.916445
2222.00,  0.919997
2224.00,  0.923960
2226.00,  0.928495
2228.00,  0.933433
2230.00,  0.939148
2232.00,  0.945539
2234.00,  0.952711
2236.00,  0.960099
2238.00,  0.968343
2240.00,  0.976882
2242.00,  0.986444
2244.00,  0.995845
2246.00,  1.005494
2248.00,  1.015178
2250.00,  1.024690
2252.00,  1.033786
2254.00,  1.042253
2256.00,  1.050016
2258.00,  1.057263
2260.00,  1.064362
2262.00,  1.070339
2264.00,  1.076224
2266.00,  1.081045
2268.00,  1.085566
2270.00,  1.089782
2272.00,  1.093248
2274.00,  1.096429
2276.00,  1.099003
2278.00,  1.100006
2280.00,  1.100731
2282.00,  1.100531
2284.00,  1.099169
2286.00,  1.098176
2288.00,  1.096514
2290.00,  1.094616
2292.00,  1.092849
2294.00,  1.090982
2296.00,  1.088897
2298.00,  1.086964
2300.00,  1.085073
2302.00,  1.083810
2304.00,  1.082388
2306.00,  1.081140
2308.00,  1.079026
2310.00,  1.076967
2312.00,  1.074665
2314.00,  1.071883
2316.00,  1.068677
2318.00,  1.065518
2320.00,  1.063254
2322.00,  1.061114
2324.00,  1.059621
2326.00,  1.058532
2328.00,  1.058928
2330.00,  1.059490
2332.00,  1.060158
2334.00,  1.061563
2336.00,  1.063545
2338.00,  1.064897
2340.00,  1.066825
2342.00,  1.068559
2344.00,  1.069716
2346.00,  1.070922
2348.00,  1.071983
2350.00,  1.071810
2352.00,  1.071918
2354.00,  1.071137
2356.00,  1.069479
2358.00,  1.067450
2360.00,  1.064387
2362.00,  1.061489
2364.00,  1.059306
2366.00,  1.056596
2368.00,  1.054922
2370.00,  1.053557
2372.00,  1.052682
2374.00,  1.051974
2376.00,  1.051053
2378.00,  1.050570
2380.00,  1.050215
2382.00,  1.049848
2384.00,  1.050250
2386.00,  1.050725
2388.00,  1.051051
2390.00,  1.051178
2392.00,  1.050928
2394.00,  1.050787
2396.00,  1.050606
2398.00,  1.050253
2400.00,  1.050488
2402.00,  1.049554
2404.00,  1.048726
2406.00,  1.048805
2408.00,  1.048185
2410.00,  1.048305
2412.00,  1.049515
2414.00,  1.050738
2416.00,  1.052277
2418.00,  1.054733
2420.00,  1.057256
2422.00,  1.059911
2424.00,  1.062685
2426.00,  1.065596
2428.00,  1.069451
2430.00,  1.072312
2432.00,  1.075324
2434.00,  1.078691
2436.00,  1.081428
2438.00,  1.084672
2440.00,  1.087865
2442.00,  1.091373
2444.00,  1.095600
2446.00,  1.098670
2448.00,  1.102764
2450.00,  1.106706
2452.00,  1.109980
2454.00,  1.114357
2456.00,  1.118868
2458.00,  1.122241
2460.00,  1.125914
2462.00,  1.129595
2464.00,  1.133039
2466.00,  1.136940
2468.00,  1.139287
2470.00,  1.142310
2472.00,  1.144425
2474.00,  1.146757
2476.00,  1.147548
2478.00,  1.148431
2480.00,  1.148634
2482.00,  1.148753
2484.00,  1.149070
2486.00,  1.148190
2488.00,  1.147614
2490.00,  1.148002
2492.00,  1.146252
2494.00,  1.146539
2496.00,  1.145983
2498.00,  1.145574
##END

##PRODUCT: Acetone_2
##SAMPLE NAME: LC1503605
##DATE: 30-Apr-2015
##TIME: 14:15:43
##Instrument S/N: 6123
##OPERATOR ID: 72124734
##SPECTROPHOTOMETER: NIRSystems Model 6500 
##AMPLIFIER: Reflectance
##NUMBER OF CONSTITUENTS: 0
##TRANSDUCER: 1,     0.000166
##TRANSDUCER: 2,     0.000034
##TRANSDUCER: 3,     2.927563
##SPECTRUM:
1100.00,  0.169624
1102.00,  0.169624
1104.00,  0.169682
1106.00,  0.169838
1108.00,  0.170049
1110.00,  0.170347
1112.00,  0.170718
1114.00,  0.171147
1116.00,  0.171635
1118.00,  0.172183
1120.00,  0.172813
1122.00,  0.173508
1124.00,  0.174284
1126.00,  0.175148
1128.00,  0.176108
1130.00,  0.177158
1132.00,  0.178271
1134.00,  0.179426
1136.00,  0.180597
1138.00,  0.181711
1140.00,  0.182794
1142.00,  0.183815
1144.00,  0.184833
1146.00,  0.185827
1148.00,  0.186819
1150.00,  0.187842
1152.00,  0.188927
1154.00,  0.190076
1156.00,  0.191327
1158.00,  0.192661
1160.00,  0.194021
1162.00,  0.195439
1164.00,  0.196813
1166.00,  0.198152
1168.00,  0.199474
1170.00,  0.200693
1172.00,  0.201829
1174.00,  0.202877
1176.00,  0.203817
1178.00,  0.204658
1180.00,  0.205376
1182.00,  0.206023
1184.00,  0.206605
1186.00,  0.207133
1188.00,  0.207646
1190.00,  0.208239
1192.00,  0.208863
1194.00,  0.209555
1196.00,  0.210320
1198.00,  0.211146
1200.00,  0.212021
1202.00,  0.212853
1204.00,  0.213671
1206.00,  0.214447
1208.00,  0.215123
1210.00,  0.215755
1212.00,  0.216310
1214.00,  0.216784
1216.00,  0.217178
1218.00,  0.217469
1220.00,  0.217661
1222.00,  0.217703
1224.00,  0.217632
1226.00,  0.217375
1228.00,  0.216996
1230.00,  0.216488
1232.00,  0.215877
1234.00,  0.215225
1236.00,  0.214520
1238.00,  0.213798
1240.00,  0.213047
1242.00,  0.212267
1244.00,  0.211497
1246.00,  0.210736
1248.00,  0.209974
1250.00,  0.209242
1252.00,  0.208561
1254.00,  0.207913
1256.00,  0.207325
1258.00,  0.206759
1260.00,  0.206256
1262.00,  0.205808
1264.00,  0.205390
1266.00,  0.204996
1268.00,  0.204636
1270.00,  0.204269
1272.00,  0.203936
1274.00,  0.203590
1276.00,  0.203269
1278.00,  0.202954
1280.00,  0.202634
1282.00,  0.202323
1284.00,  0.202051
1286.00,  0.201784
1288.00,  0.201521
1290.00,  0.201267
1292.00,  0.201034
1294.00,  0.200812
1296.00,  0.200669
1298.00,  0.200541
1300.00,  0.200446
1302.00,  0.200404
1304.00,  0.200381
1306.00,  0.200411
1308.00,  0.200495
1310.00,  0.200643
1312.00,  0.200830
1314.00,  0.201047
1316.00,  0.201328
1318.00,  0.201677
1320.00,  0.202051
1322.00,  0.202545
1324.00,  0.203114
1326.00,  0.203768
1328.00,  0.204516
1330.00,  0.205385
1332.00,  0.206419
1334.00,  0.207568
1336.00,  0.208859
1338.00,  0.210314
1340.00,  0.211861
1342.00,  0.213543
1344.00,  0.215276
1346.00,  0.217083
1348.00,  0.218910
1350.00,  0.220747
1352.00,  0.222508
1354.00,  0.224227
1356.00,  0.225923
1358.00,  0.227581
1360.00,  0.229271
1362.00,  0.230972
1364.00,  0.232730
1366.00,  0.234402
1368.00,  0.236037
1370.00,  0.237537
1372.00,  0.238876
1374.00,  0.240110
1376.00,  0.241288
1378.00,  0.242412
1380.00,  0.243576
1382.00,  0.244815
1384.00,  0.246178
1386.00,  0.247577
1388.00,  0.249082
1390.00,  0.250659
1392.00,  0.252266
1394.00,  0.253935
1396.00,  0.255720
1398.00,  0.257623
1400.00,  0.259600
1402.00,  0.261768
1404.00,  0.264029
1406.00,  0.266482
1408.00,  0.269076
1410.00,  0.271803
1412.00,  0.274691
1414.00,  0.277645
1416.00,  0.280665
1418.00,  0.283781
1420.00,  0.286883
1422.00,  0.290020
1424.00,  0.293052
1426.00,  0.296104
1428.00,  0.299148
1430.00,  0.302074
1432.00,  0.304921
1434.00,  0.307623
1436.00,  0.310184
1438.00,  0.312638
1440.00,  0.315048
1442.00,  0.317396
1444.00,  0.319731
1446.00,  0.322035
1448.00,  0.324255
1450.00,  0.326419
1452.00,  0.328478
1454.00,  0.330369
1456.00,  0.332031
1458.00,  0.333551
1460.00,  0.334949
1462.00,  0.336251
1464.00,  0.337491
1466.00,  0.338720
1468.00,  0.339990
1470.00,  0.341217
1472.00,  0.342362
1474.00,  0.343362
1476.00,  0.344059
1478.00,  0.344393
1480.00,  0.344379
1482.00,  0.344075
1484.00,  0.343555
1486.00,  0.342889
1488.00,  0.342157
1490.00,  0.341474
1492.00,  0.340755
1494.00,  0.340093
1496.00,  0.339577
1498.00,  0.339113
1500.00,  0.338771
1502.00,  0.338530
1504.00,  0.338346
1506.00,  0.338269
1508.00,  0.338151
1510.00,  0.338066
1512.00,  0.337943
1514.00,  0.337764
1516.00,  0.337481
1518.00,  0.337093
1520.00,  0.336634
1522.00,  0.336032
1524.00,  0.335330
1526.00,  0.334473
1528.00,  0.333655
1530.00,  0.332789
1532.00,  0.331836
1534.00,  0.330894
1536.00,  0.330006
1538.00,  0.329158
1540.00,  0.328373
1542.00,  0.327736
1544.00,  0.327142
1546.00,  0.326672
1548.00,  0.326385
1550.00,  0.326232
1552.00,  0.326111
1554.00,  0.326073
1556.00,  0.326024
1558.00,  0.325966
1560.00,  0.325957
1562.00,  0.325973
1564.00,  0.325992
1566.00,  0.325974
1568.00,  0.325927
1570.00,  0.325856
1572.00,  0.325748
1574.00,  0.325674
1576.00,  0.325572
1578.00,  0.325408
1580.00,  0.325221
1582.00,  0.324930
1584.00,  0.324587
1586.00,  0.324208
1588.00,  0.323850
1590.00,  0.323468
1592.00,  0.323019
1594.00,  0.322522
1596.00,  0.321945
1598.00,  0.321299
1600.00,  0.320597
1602.00,  0.319908
1604.00,  0.319245
1606.00,  0.318547
1608.00,  0.317850
1610.00,  0.317153
1612.00,  0.316443
1614.00,  0.315694
1616.00,  0.314863
1618.00,  0.314116
1620.00,  0.313375
1622.00,  0.312691
1624.00,  0.312110
1626.00,  0.311622
1628.00,  0.311240
1630.00,  0.310937
1632.00,  0.310751
1634.00,  0.310613
1636.00,  0.310561
1638.00,  0.310536
1640.00,  0.310562
1642.00,  0.310635
1644.00,  0.310771
1646.00,  0.311027
1648.00,  0.311468
1650.00,  0.312109
1652.00,  0.313097
1654.00,  0.314358
1656.00,  0.315919
1658.00,  0.317712
1660.00,  0.319674
1662.00,  0.321776
1664.00,  0.323975
1666.00,  0.326288
1668.00,  0.328820
1670.00,  0.331528
1672.00,  0.334566
1674.00,  0.337788
1676.00,  0.341050
1678.00,  0.344332
1680.00,  0.347319
1682.00,  0.349884
1684.00,  0.352076
1686.00,  0.353967
1688.00,  0.355787
1690.00,  0.357787
1692.00,  0.360118
1694.00,  0.362594
1696.00,  0.365036
1698.00,  0.367257
1700.00,  0.369119
1702.00,  0.370715
1704.00,  0.372260
1706.00,  0.373790
1708.00,  0.375520
1710.00,  0.377431
1712.00,  0.379419
1714.00,  0.381395
1716.00,  0.383268
1718.00,  0.384809
1720.00,  0.386146
1722.00,  0.387250
1724.00,  0.388215
1726.00,  0.389019
1728.00,  0.389673
1730.00,  0.390053
1732.00,  0.390163
1734.00,  0.389794
1736.00,  0.389008
1738.00,  0.387785
1740.00,  0.386172
1742.00,  0.384281
1744.00,  0.382339
1746.00,  0.380421
1748.00,  0.378656
1750.00,  0.377252
1752.00,  0.376133
1754.00,  0.375360
1756.00,  0.374886
1758.00,  0.374630
1760.00,  0.374468
1762.00,  0.374409
1764.00,  0.374358
1766.00,  0.374313
1768.00,  0.374239
1770.00,  0.374161
1772.00,  0.374119
1774.00,  0.374170
1776.00,  0.374292
1778.00,  0.374468
1780.00,  0.374715
1782.00,  0.374980
1784.00,  0.375291
1786.00,  0.375546
1788.00,  0.375844
1790.00,  0.376088
1792.00,  0.376279
1794.00,  0.376395
1796.00,  0.376316
1798.00,  0.376170
1800.00,  0.375888
1802.00,  0.375524
1804.00,  0.375119
1806.00,  0.374680
1808.00,  0.374272
1810.00,  0.373836
1812.00,  0.373406
1814.00,  0.372956
1816.00,  0.372586
1818.00,  0.372181
1820.00,  0.371897
1822.00,  0.371638
1824.00,  0.371443
1826.00,  0.371233
1828.00,  0.370977
1830.00,  0.370619
1832.00,  0.370248
1834.00,  0.369771
1836.00,  0.369221
1838.00,  0.368676
1840.00,  0.368082
1842.00,  0.367445
1844.00,  0.366804
1846.00,  0.366197
1848.00,  0.365689
1850.00,  0.365304
1852.00,  0.364920
1854.00,  0.364766
1856.00,  0.364714
1858.00,  0.364737
1860.00,  0.364746
1862.00,  0.364756
1864.00,  0.364769
1866.00,  0.364930
1868.00,  0.365169
1870.00,  0.365717
1872.00,  0.366561
1874.00,  0.367641
1876.00,  0.369024
1878.00,  0.370780
1880.00,  0.373007
1882.00,  0.375904
1884.00,  0.379581
1886.00,  0.384000
1888.00,  0.389233
1890.00,  0.395288
1892.00,  0.402009
1894.00,  0.409047
1896.00,  0.416652
1898.00,  0.424471
1900.00,  0.432333
1902.00,  0.440058
1904.00,  0.447586
1906.00,  0.454617
1908.00,  0.461167
1910.00,  0.467281
1912.00,  0.472905
1914.00,  0.478058
1916.00,  0.482796
1918.00,  0.487119
1920.00,  0.490971
1922.00,  0.494410
1924.00,  0.497376
1926.00,  0.499784
1928.00,  0.501445
1930.00,  0.502271
1932.00,  0.502184
1934.00,  0.501249
1936.00,  0.499355
1938.00,  0.496763
1940.00,  0.493626
1942.00,  0.490087
1944.00,  0.486411
1946.00,  0.482621
1948.00,  0.478837
1950.00,  0.475312
1952.00,  0.471965
1954.00,  0.468826
1956.00,  0.465832
1958.00,  0.463076
1960.00,  0.460569
1962.00,  0.458156
1964.00,  0.455939
1966.00,  0.453807
1968.00,  0.451811
1970.00,  0.449888
1972.00,  0.448122
1974.00,  0.446432
1976.00,  0.444772
1978.00,  0.443260
1980.00,  0.441787
1982.00,  0.440465
1984.00,  0.439252
1986.00,  0.438188
1988.00,  0.437129
1990.00,  0.436192
1992.00,  0.435443
1994.00,  0.434728
1996.00,  0.434160
1998.00,  0.433666
2000.00,  0.433212
2002.00,  0.432941
2004.00,  0.432887
2006.00,  0.432921
2008.00,  0.433137
2010.00,  0.433733
2012.00,  0.434390
2014.00,  0.435315
2016.00,  0.436599
2018.00,  0.438018
2020.00,  0.439834
2022.00,  0.441901
2024.00,  0.444262
2026.00,  0.446842
2028.00,  0.449667
2030.00,  0.452773
2032.00,  0.456186
2034.00,  0.459852
2036.00,  0.463824
2038.00,  0.468102
2040.00,  0.472707
2042.00,  0.477574
2044.00,  0.482735
2046.00,  0.488113
2048.00,  0.493523
2050.00,  0.498963
2052.00,  0.504222
2054.00,  0.509236
2056.00,  0.514071
2058.00,  0.518764
2060.00,  0.523395
2062.00,  0.528050
2064.00,  0.532590
2066.00,  0.536946
2068.00,  0.541021
2070.00,  0.544617
2072.00,  0.548047
2074.00,  0.551057
2076.00,  0.554053
2078.00,  0.557038
2080.00,  0.560108
2082.00,  0.563343
2084.00,  0.566874
2086.00,  0.570364
2088.00,  0.574030
2090.00,  0.577688
2092.00,  0.581503
2094.00,  0.585221
2096.00,  0.588807
2098.00,  0.591905
2100.00,  0.594421
2102.00,  0.596196
2104.00,  0.597635
2106.00,  0.598176
2108.00,  0.598033
2110.00,  0.597329
2112.00,  0.596133
2114.00,  0.594652
2116.00,  0.593263
2118.00,  0.592012
2120.00,  0.590948
2122.00,  0.589964
2124.00,  0.588777
2126.00,  0.587067
2128.00,  0.584788
2130.00,  0.581928
2132.00,  0.578424
2134.00,  0.574862
2136.00,  0.571280
2138.00,  0.567358
2140.00,  0.563774
2142.00,  0.560133
2144.00,  0.556693
2146.00,  0.553734
2148.00,  0.551144
2150.00,  0.549210
2152.00,  0.547578
2154.00,  0.546091
2156.00,  0.544801
2158.00,  0.543570
2160.00,  0.542213
2162.00,  0.540959
2164.00,  0.539635
2166.00,  0.538529
2168.00,  0.537413
2170.00,  0.536320
2172.00,  0.535128
2174.00,  0.534079
2176.00,  0.533280
2178.00,  0.532503
2180.00,  0.531982
2182.00,  0.531502
2184.00,  0.531025
2186.00,  0.530536
2188.00,  0.530183
2190.00,  0.529729
2192.00,  0.529221
2194.00,  0.528933
2196.00,  0.528708
2198.00,  0.528526
2200.00,  0.528396
2202.00,  0.528460
2204.00,  0.528714
2206.00,  0.529317
2208.00,  0.529910
2210.00,  0.530895
2212.00,  0.532103
2214.00,  0.533722
2216.00,  0.535603
2218.00,  0.537787
2220.00,  0.540585
2222.00,  0.543853
2224.00,  0.547588
2226.00,  0.552142
2228.00,  0.556973
2230.00,  0.562596
2232.00,  0.568919
2234.00,  0.576452
2236.00,  0.584671
2238.00,  0.594067
2240.00,  0.604713
2242.00,  0.616301
2244.00,  0.628773
2246.00,  0.642310
2248.00,  0.656194
2250.00,  0.670331
2252.00,  0.684141
2254.00,  0.697666
2256.00,  0.710005
2258.00,  0.721165
2260.00,  0.731251
2262.00,  0.740169
2264.00,  0.747419
2266.00,  0.753094
2268.00,  0.757712
2270.00,  0.761636
2272.00,  0.764827
2274.00,  0.767563
2276.00,  0.769681
2278.00,  0.771132
2280.00,  0.771683
2282.00,  0.771304
2284.00,  0.770405
2286.00,  0.769384
2288.00,  0.768123
2290.00,  0.766267
2292.00,  0.764005
2294.00,  0.761020
2296.00,  0.757712
2298.00,  0.755038
2300.00,  0.752647
2302.00,  0.750806
2304.00,  0.750003
2306.00,  0.749354
2308.00,  0.748593
2310.00,  0.747710
2312.00,  0.746242
2314.00,  0.743941
2316.00,  0.740694
2318.00,  0.737799
2320.00,  0.734587
2322.00,  0.732569
2324.00,  0.731295
2326.00,  0.730289
2328.00,  0.730390
2330.00,  0.731031
2332.00,  0.732018
2334.00,  0.733473
2336.00,  0.735408
2338.00,  0.737875
2340.00,  0.741102
2342.00,  0.744691
2344.00,  0.748164
2346.00,  0.751087
2348.00,  0.753225
2350.00,  0.754582
2352.00,  0.754923
2354.00,  0.754266
2356.00,  0.753450
2358.00,  0.751818
2360.00,  0.749153
2362.00,  0.746655
2364.00,  0.744057
2366.00,  0.742350
2368.00,  0.740906
2370.00,  0.739647
2372.00,  0.738170
2374.00,  0.736529
2376.00,  0.734319
2378.00,  0.732806
2380.00,  0.731675
2382.00,  0.731260
2384.00,  0.730892
2386.00,  0.730571
2388.00,  0.730257
2390.00,  0.729976
2392.00,  0.729872
2394.00,  0.730142
2396.00,  0.730485
2398.00,  0.730780
2400.00,  0.731217
2402.00,  0.731731
2404.00,  0.732119
2406.00,  0.732371
2408.00,  0.732884
2410.00,  0.734087
2412.00,  0.735766
2414.00,  0.738976
2416.00,  0.742936
2418.00,  0.746885
2420.00,  0.751209
2422.00,  0.755630
2424.00,  0.759621
2426.00,  0.764060
2428.00,  0.768643
2430.00,  0.772769
2432.00,  0.777305
2434.00,  0.781813
2436.00,  0.786404
2438.00,  0.791388
2440.00,  0.796623
2442.00,  0.801957
2444.00,  0.807198
2446.00,  0.812806
2448.00,  0.818292
2450.00,  0.823673
2452.00,  0.829611
2454.00,  0.835323
2456.00,  0.840884
2458.00,  0.846771
2460.00,  0.852476
2462.00,  0.858336
2464.00,  0.863446
2466.00,  0.869230
2468.00,  0.874218
2470.00,  0.879598
2472.00,  0.883964
2474.00,  0.887996
2476.00,  0.891550
2478.00,  0.894391
2480.00,  0.896289
2482.00,  0.897724
2484.00,  0.899720
2486.00,  0.900454
2488.00,  0.901464
2490.00,  0.902100
2492.00,  0.901852
2494.00,  0.902187
2496.00,  0.903133
2498.00,  0.902557
##END

##PRODUCT: Acetone_2
##SAMPLE NAME: LC1503605
##DATE: 06-May-2015
##TIME:  8:46:57
##Instrument S/N: 6123
##OPERATOR ID: 72124734
##SPECTROPHOTOMETER: NIRSystems Model 6500 
##AMPLIFIER: Reflectance
##NUMBER OF CONSTITUENTS: 0
##TRANSDUCER: 1,     0.000166
##TRANSDUCER: 2,     0.000014
##TRANSDUCER: 3,     2.927495
##SPECTRUM:
1100.00,  0.157554
1102.00,  0.157534
1104.00,  0.157589
1106.00,  0.157730
1108.00,  0.157921
1110.00,  0.158209
1112.00,  0.158580
1114.00,  0.159014
1116.00,  0.159524
1118.00,  0.160066
1120.00,  0.160698
1122.00,  0.161397
1124.00,  0.162169
1126.00,  0.163028
1128.00,  0.163982
1130.00,  0.165032
1132.00,  0.166134
1134.00,  0.167277
1136.00,  0.168447
1138.00,  0.169550
1140.00,  0.170645
1142.00,  0.171681
1144.00,  0.172687
1146.00,  0.173668
1148.00,  0.174679
1150.00,  0.175714
1152.00,  0.176795
1154.00,  0.177916
1156.00,  0.179140
1158.00,  0.180477
1160.00,  0.181864
1162.00,  0.183283
1164.00,  0.184663
1166.00,  0.185992
1168.00,  0.187307
1170.00,  0.188531
1172.00,  0.189699
1174.00,  0.190737
1176.00,  0.191711
1178.00,  0.192542
1180.00,  0.193272
1182.00,  0.193927
1184.00,  0.194517
1186.00,  0.195068
1188.00,  0.195618
1190.00,  0.196188
1192.00,  0.196809
1194.00,  0.197526
1196.00,  0.198296
1198.00,  0.199131
1200.00,  0.200000
1202.00,  0.200849
1204.00,  0.201693
1206.00,  0.202478
1208.00,  0.203173
1210.00,  0.203789
1212.00,  0.204363
1214.00,  0.204844
1216.00,  0.205245
1218.00,  0.205544
1220.00,  0.205753
1222.00,  0.205822
1224.00,  0.205713
1226.00,  0.205484
1228.00,  0.205105
1230.00,  0.204608
1232.00,  0.203999
1234.00,  0.203340
1236.00,  0.202653
1238.00,  0.201934
1240.00,  0.201182
1242.00,  0.200407
1244.00,  0.199632
1246.00,  0.198873
1248.00,  0.198116
1250.00,  0.197388
1252.00,  0.196717
1254.00,  0.196056
1256.00,  0.195440
1258.00,  0.194871
1260.00,  0.194370
1262.00,  0.193929
1264.00,  0.193513
1266.00,  0.193113
1268.00,  0.192740
1270.00,  0.192378
1272.00,  0.192040
1274.00,  0.191701
1276.00,  0.191356
1278.00,  0.191029
1280.00,  0.190703
1282.00,  0.190414
1284.00,  0.190118
1286.00,  0.189839
1288.00,  0.189581
1290.00,  0.189336
1292.00,  0.189096
1294.00,  0.188894
1296.00,  0.188732
1298.00,  0.188607
1300.00,  0.188514
1302.00,  0.188454
1304.00,  0.188428
1306.00,  0.188441
1308.00,  0.188572
1310.00,  0.188671
1312.00,  0.188858
1314.00,  0.189087
1316.00,  0.189357
1318.00,  0.189685
1320.00,  0.190086
1322.00,  0.190547
1324.00,  0.191095
1326.00,  0.191726
1328.00,  0.192445
1330.00,  0.193328
1332.00,  0.194329
1334.00,  0.195477
1336.00,  0.196759
1338.00,  0.198189
1340.00,  0.199734
1342.00,  0.201401
1344.00,  0.203139
1346.00,  0.204938
1348.00,  0.206762
1350.00,  0.208569
1352.00,  0.210335
1354.00,  0.212049
1356.00,  0.213733
1358.00,  0.215402
1360.00,  0.217093
1362.00,  0.218807
1364.00,  0.220584
1366.00,  0.222305
1368.00,  0.223943
1370.00,  0.225469
1372.00,  0.226837
1374.00,  0.228043
1376.00,  0.229196
1378.00,  0.230330
1380.00,  0.231509
1382.00,  0.232759
1384.00,  0.234082
1386.00,  0.235474
1388.00,  0.236931
1390.00,  0.238446
1392.00,  0.240048
1394.00,  0.241800
1396.00,  0.243548
1398.00,  0.245411
1400.00,  0.247369
1402.00,  0.249501
1404.00,  0.251748
1406.00,  0.254164
1408.00,  0.256753
1410.00,  0.259462
1412.00,  0.262314
1414.00,  0.265276
1416.00,  0.268321
1418.00,  0.271408
1420.00,  0.274512
1422.00,  0.277678
1424.00,  0.280790
1426.00,  0.283850
1428.00,  0.286890
1430.00,  0.289846
1432.00,  0.292564
1434.00,  0.295287
1436.00,  0.297863
1438.00,  0.300328
1440.00,  0.302716
1442.00,  0.305038
1444.00,  0.307384
1446.00,  0.309671
1448.00,  0.311911
1450.00,  0.314077
1452.00,  0.316110
1454.00,  0.318020
1456.00,  0.319687
1458.00,  0.321211
1460.00,  0.322624
1462.00,  0.323894
1464.00,  0.325161
1466.00,  0.326424
1468.00,  0.327673
1470.00,  0.328941
1472.00,  0.330111
1474.00,  0.331140
1476.00,  0.331840
1478.00,  0.332188
1480.00,  0.332207
1482.00,  0.331864
1484.00,  0.331343
1486.00,  0.330647
1488.00,  0.329867
1490.00,  0.329129
1492.00,  0.328362
1494.00,  0.327696
1496.00,  0.327123
1498.00,  0.326647
1500.00,  0.326320
1502.00,  0.326148
1504.00,  0.326003
1506.00,  0.325992
1508.00,  0.325965
1510.00,  0.325975
1512.00,  0.325986
1514.00,  0.325857
1516.00,  0.325652
1518.00,  0.325362
1520.00,  0.324947
1522.00,  0.324350
1524.00,  0.323591
1526.00,  0.322753
1528.00,  0.321841
1530.00,  0.320830
1532.00,  0.319859
1534.00,  0.318892
1536.00,  0.317897
1538.00,  0.316951
1540.00,  0.316125
1542.00,  0.315339
1544.00,  0.314680
1546.00,  0.314174
1548.00,  0.313771
1550.00,  0.313534
1552.00,  0.313354
1554.00,  0.313242
1556.00,  0.313159
1558.00,  0.313089
1560.00,  0.313033
1562.00,  0.312984
1564.00,  0.312958
1566.00,  0.312939
1568.00,  0.312909
1570.00,  0.312794
1572.00,  0.312688
1574.00,  0.312607
1576.00,  0.312507
1578.00,  0.312379
1580.00,  0.312177
1582.00,  0.311901
1584.00,  0.311548
1586.00,  0.311202
1588.00,  0.310815
1590.00,  0.310445
1592.00,  0.310047
1594.00,  0.309561
1596.00,  0.309012
1598.00,  0.308366
1600.00,  0.307704
1602.00,  0.307039
1604.00,  0.306363
1606.00,  0.305709
1608.00,  0.305009
1610.00,  0.304312
1612.00,  0.303592
1614.00,  0.302847
1616.00,  0.302061
1618.00,  0.301282
1620.00,  0.300593
1622.00,  0.299909
1624.00,  0.299360
1626.00,  0.298886
1628.00,  0.298531
1630.00,  0.298271
1632.00,  0.298086
1634.00,  0.297966
1636.00,  0.297948
1638.00,  0.297928
1640.00,  0.297994
1642.00,  0.298049
1644.00,  0.298208
1646.00,  0.298512
1648.00,  0.298948
1650.00,  0.299618
1652.00,  0.300596
1654.00,  0.301832
1656.00,  0.303414
1658.00,  0.305244
1660.00,  0.307216
1662.00,  0.309330
1664.00,  0.311554
1666.00,  0.313882
1668.00,  0.316427
1670.00,  0.319165
1672.00,  0.322210
1674.00,  0.325493
1676.00,  0.328767
1678.00,  0.332099
1680.00,  0.335111
1682.00,  0.337737
1684.00,  0.340007
1686.00,  0.341905
1688.00,  0.343775
1690.00,  0.345773
1692.00,  0.348113
1694.00,  0.350632
1696.00,  0.353116
1698.00,  0.355336
1700.00,  0.357227
1702.00,  0.358870
1704.00,  0.360416
1706.00,  0.361982
1708.00,  0.363733
1710.00,  0.365623
1712.00,  0.367604
1714.00,  0.369620
1716.00,  0.371471
1718.00,  0.373057
1720.00,  0.374378
1722.00,  0.375487
1724.00,  0.376452
1726.00,  0.377300
1728.00,  0.377941
1730.00,  0.378408
1732.00,  0.378453
1734.00,  0.378129
1736.00,  0.377351
1738.00,  0.376139
1740.00,  0.374506
1742.00,  0.372620
1744.00,  0.370670
1746.00,  0.368697
1748.00,  0.366939
1750.00,  0.365501
1752.00,  0.364353
1754.00,  0.363525
1756.00,  0.363000
1758.00,  0.362713
1760.00,  0.362586
1762.00,  0.362503
1764.00,  0.362450
1766.00,  0.362378
1768.00,  0.362262
1770.00,  0.362200
1772.00,  0.362171
1774.00,  0.362190
1776.00,  0.362285
1778.00,  0.362470
1780.00,  0.362731
1782.00,  0.363017
1784.00,  0.363303
1786.00,  0.363596
1788.00,  0.363833
1790.00,  0.364113
1792.00,  0.364310
1794.00,  0.364424
1796.00,  0.364398
1798.00,  0.364240
1800.00,  0.363973
1802.00,  0.363572
1804.00,  0.363178
1806.00,  0.362807
1808.00,  0.362374
1810.00,  0.361910
1812.00,  0.361456
1814.00,  0.361023
1816.00,  0.360638
1818.00,  0.360252
1820.00,  0.359945
1822.00,  0.359651
1824.00,  0.359491
1826.00,  0.359289
1828.00,  0.358994
1830.00,  0.358629
1832.00,  0.358237
1834.00,  0.357762
1836.00,  0.357258
1838.00,  0.356701
1840.00,  0.356107
1842.00,  0.355458
1844.00,  0.354812
1846.00,  0.354221
1848.00,  0.353714
1850.00,  0.353300
1852.00,  0.353004
1854.00,  0.352757
1856.00,  0.352731
1858.00,  0.352714
1860.00,  0.352716
1862.00,  0.352709
1864.00,  0.352719
1866.00,  0.352754
1868.00,  0.352938
1870.00,  0.353451
1872.00,  0.354245
1874.00,  0.355251
1876.00,  0.356560
1878.00,  0.358289
1880.00,  0.360377
1882.00,  0.363158
1884.00,  0.366616
1886.00,  0.370906
1888.00,  0.376004
1890.00,  0.381858
1892.00,  0.388392
1894.00,  0.395299
1896.00,  0.402744
1898.00,  0.410229
1900.00,  0.417934
1902.00,  0.425516
1904.00,  0.432837
1906.00,  0.439741
1908.00,  0.446088
1910.00,  0.452087
1912.00,  0.457523
1914.00,  0.462574
1916.00,  0.467088
1918.00,  0.471271
1920.00,  0.475060
1922.00,  0.478382
1924.00,  0.481236
1926.00,  0.483527
1928.00,  0.485190
1930.00,  0.486003
1932.00,  0.485972
1934.00,  0.485069
1936.00,  0.483192
1938.00,  0.480576
1940.00,  0.477461
1942.00,  0.473982
1944.00,  0.470321
1946.00,  0.466616
1948.00,  0.462987
1950.00,  0.459396
1952.00,  0.456101
1954.00,  0.453101
1956.00,  0.450150
1958.00,  0.447503
1960.00,  0.445085
1962.00,  0.442831
1964.00,  0.440618
1966.00,  0.438582
1968.00,  0.436686
1970.00,  0.434829
1972.00,  0.433181
1974.00,  0.431560
1976.00,  0.430019
1978.00,  0.428553
1980.00,  0.427193
1982.00,  0.425954
1984.00,  0.424784
1986.00,  0.423828
1988.00,  0.422868
1990.00,  0.421966
1992.00,  0.421294
1994.00,  0.420695
1996.00,  0.420157
1998.00,  0.419694
2000.00,  0.419368
2002.00,  0.419213
2004.00,  0.419143
2006.00,  0.419259
2008.00,  0.419541
2010.00,  0.420094
2012.00,  0.420893
2014.00,  0.421938
2016.00,  0.423197
2018.00,  0.424792
2020.00,  0.426627
2022.00,  0.428797
2024.00,  0.431207
2026.00,  0.433904
2028.00,  0.436814
2030.00,  0.439985
2032.00,  0.443487
2034.00,  0.447256
2036.00,  0.451162
2038.00,  0.455515
2040.00,  0.460180
2042.00,  0.465083
2044.00,  0.470315
2046.00,  0.475635
2048.00,  0.481136
2050.00,  0.486550
2052.00,  0.491750
2054.00,  0.496831
2056.00,  0.501703
2058.00,  0.506369
2060.00,  0.511070
2062.00,  0.515730
2064.00,  0.520290
2066.00,  0.524667
2068.00,  0.528669
2070.00,  0.532223
2072.00,  0.535649
2074.00,  0.538659
2076.00,  0.541642
2078.00,  0.544628
2080.00,  0.547704
2082.00,  0.550906
2084.00,  0.554461
2086.00,  0.557977
2088.00,  0.561636
2090.00,  0.565446
2092.00,  0.569236
2094.00,  0.572959
2096.00,  0.576446
2098.00,  0.579562
2100.00,  0.582194
2102.00,  0.584026
2104.00,  0.585213
2106.00,  0.585692
2108.00,  0.585556
2110.00,  0.584907
2112.00,  0.583694
2114.00,  0.582220
2116.00,  0.580711
2118.00,  0.579474
2120.00,  0.578406
2122.00,  0.577448
2124.00,  0.576295
2126.00,  0.574648
2128.00,  0.572265
2130.00,  0.569501
2132.00,  0.566029
2134.00,  0.562513
2136.00,  0.558772
2138.00,  0.555000
2140.00,  0.551445
2142.00,  0.547768
2144.00,  0.544471
2146.00,  0.541409
2148.00,  0.538827
2150.00,  0.536732
2152.00,  0.535069
2154.00,  0.533732
2156.00,  0.532291
2158.00,  0.531034
2160.00,  0.529723
2162.00,  0.528524
2164.00,  0.527241
2166.00,  0.526213
2168.00,  0.524925
2170.00,  0.523906
2172.00,  0.522714
2174.00,  0.521683
2176.00,  0.520677
2178.00,  0.520107
2180.00,  0.519638
2182.00,  0.519287
2184.00,  0.518832
2186.00,  0.518374
2188.00,  0.517886
2190.00,  0.517368
2192.00,  0.516762
2194.00,  0.516519
2196.00,  0.516282
2198.00,  0.516006
2200.00,  0.515838
2202.00,  0.515914
2204.00,  0.516305
2206.00,  0.516639
2208.00,  0.517389
2210.00,  0.518378
2212.00,  0.519616
2214.00,  0.521244
2216.00,  0.523068
2218.00,  0.525371
2220.00,  0.528236
2222.00,  0.531442
2224.00,  0.535188
2226.00,  0.539662
2228.00,  0.544497
2230.00,  0.550176
2232.00,  0.556651
2234.00,  0.564025
2236.00,  0.572301
2238.00,  0.581888
2240.00,  0.592191
2242.00,  0.603942
2244.00,  0.616401
2246.00,  0.629719
2248.00,  0.643746
2250.00,  0.657898
2252.00,  0.672166
2254.00,  0.685377
2256.00,  0.697970
2258.00,  0.709249
2260.00,  0.719506
2262.00,  0.728235
2264.00,  0.735886
2266.00,  0.741760
2268.00,  0.746444
2270.00,  0.750088
2272.00,  0.753643
2274.00,  0.756349
2276.00,  0.758442
2278.00,  0.759793
2280.00,  0.760419
2282.00,  0.760278
2284.00,  0.759374
2286.00,  0.758191
2288.00,  0.756975
2290.00,  0.755019
2292.00,  0.752685
2294.00,  0.749864
2296.00,  0.746691
2298.00,  0.743662
2300.00,  0.741491
2302.00,  0.739716
2304.00,  0.738518
2306.00,  0.737832
2308.00,  0.737155
2310.00,  0.736471
2312.00,  0.734772
2314.00,  0.732152
2316.00,  0.729339
2318.00,  0.726233
2320.00,  0.723579
2322.00,  0.720789
2324.00,  0.719439
2326.00,  0.718579
2328.00,  0.718510
2330.00,  0.718948
2332.00,  0.719983
2334.00,  0.721544
2336.00,  0.723385
2338.00,  0.725769
2340.00,  0.729059
2342.00,  0.732766
2344.00,  0.736274
2346.00,  0.739344
2348.00,  0.741618
2350.00,  0.743012
2352.00,  0.743128
2354.00,  0.742649
2356.00,  0.741571
2358.00,  0.739863
2360.00,  0.737659
2362.00,  0.734943
2364.00,  0.732580
2366.00,  0.730681
2368.00,  0.729098
2370.00,  0.727708
2372.00,  0.726239
2374.00,  0.724299
2376.00,  0.722709
2378.00,  0.720974
2380.00,  0.719781
2382.00,  0.719037
2384.00,  0.718576
2386.00,  0.718370
2388.00,  0.718270
2390.00,  0.717959
2392.00,  0.718018
2394.00,  0.717843
2396.00,  0.718230
2398.00,  0.718564
2400.00,  0.719097
2402.00,  0.719412
2404.00,  0.719632
2406.00,  0.720001
2408.00,  0.720522
2410.00,  0.721762
2412.00,  0.723861
2414.00,  0.726809
2416.00,  0.730172
2418.00,  0.734556
2420.00,  0.738625
2422.00,  0.743254
2424.00,  0.747419
2426.00,  0.751573
2428.00,  0.756012
2430.00,  0.760546
2432.00,  0.764774
2434.00,  0.769870
2436.00,  0.774315
2438.00,  0.779166
2440.00,  0.784083
2442.00,  0.789107
2444.00,  0.794392
2446.00,  0.800064
2448.00,  0.805904
2450.00,  0.811475
2452.00,  0.817064
2454.00,  0.822678
2456.00,  0.828475
2458.00,  0.833991
2460.00,  0.839444
2462.00,  0.845789
2464.00,  0.851523
2466.00,  0.856605
2468.00,  0.861864
2470.00,  0.866526
2472.00,  0.871403
2474.00,  0.876002
2476.00,  0.879200
2478.00,  0.881006
2480.00,  0.883995
2482.00,  0.885440
2484.00,  0.886852
2486.00,  0.888084
2488.00,  0.889480
2490.00,  0.889893
2492.00,  0.889905
2494.00,  0.889952
2496.00,  0.890477
2498.00,  0.889965
##END

##PRODUCT: Acetone_2
##SAMPLE NAME: LC1503605
##DATE: 06-May-2015
##TIME:  8:48:38
##Instrument S/N: 6123
##OPERATOR ID: 72124734
##SPECTROPHOTOMETER: NIRSystems Model 6500 
##AMPLIFIER: Reflectance
##NUMBER OF CONSTITUENTS: 0
##TRANSDUCER: 1,     0.000172
##TRANSDUCER: 2,     0.000034
##TRANSDUCER: 3,     2.927500
##SPECTRUM:
1100.00,  0.150234
1102.00,  0.150186
1104.00,  0.150206
1106.00,  0.150335
1108.00,  0.150508
1110.00,  0.150786
1112.00,  0.151155
1114.00,  0.151604
1116.00,  0.152128
1118.00,  0.152706
1120.00,  0.153371
1122.00,  0.154115
1124.00,  0.154959
1126.00,  0.155868
1128.00,  0.156916
1130.00,  0.158074
1132.00,  0.159285
1134.00,  0.160544
1136.00,  0.161807
1138.00,  0.163019
1140.00,  0.164183
1142.00,  0.165293
1144.00,  0.166334
1146.00,  0.167381
1148.00,  0.168420
1150.00,  0.169494
1152.00,  0.170630
1154.00,  0.171807
1156.00,  0.173108
1158.00,  0.174521
1160.00,  0.175981
1162.00,  0.177494
1164.00,  0.178982
1166.00,  0.180400
1168.00,  0.181813
1170.00,  0.183103
1172.00,  0.184352
1174.00,  0.185448
1176.00,  0.186450
1178.00,  0.187336
1180.00,  0.188109
1182.00,  0.188777
1184.00,  0.189393
1186.00,  0.189945
1188.00,  0.190499
1190.00,  0.191089
1192.00,  0.191741
1194.00,  0.192484
1196.00,  0.193307
1198.00,  0.194184
1200.00,  0.195109
1202.00,  0.196015
1204.00,  0.196894
1206.00,  0.197741
1208.00,  0.198491
1210.00,  0.199162
1212.00,  0.199770
1214.00,  0.200268
1216.00,  0.200698
1218.00,  0.201035
1220.00,  0.201238
1222.00,  0.201294
1224.00,  0.201190
1226.00,  0.200900
1228.00,  0.200458
1230.00,  0.199885
1232.00,  0.199194
1234.00,  0.198429
1236.00,  0.197623
1238.00,  0.196800
1240.00,  0.195935
1242.00,  0.195025
1244.00,  0.194115
1246.00,  0.193211
1248.00,  0.192312
1250.00,  0.191437
1252.00,  0.190625
1254.00,  0.189826
1256.00,  0.189094
1258.00,  0.188414
1260.00,  0.187785
1262.00,  0.187229
1264.00,  0.186706
1266.00,  0.186211
1268.00,  0.185741
1270.00,  0.185288
1272.00,  0.184866
1274.00,  0.184421
1276.00,  0.184014
1278.00,  0.183605
1280.00,  0.183217
1282.00,  0.182842
1284.00,  0.182484
1286.00,  0.182141
1288.00,  0.181819
1290.00,  0.181490
1292.00,  0.181189
1294.00,  0.180937
1296.00,  0.180715
1298.00,  0.180521
1300.00,  0.180385
1302.00,  0.180281
1304.00,  0.180219
1306.00,  0.180196
1308.00,  0.180255
1310.00,  0.180341
1312.00,  0.180516
1314.00,  0.180710
1316.00,  0.180974
1318.00,  0.181297
1320.00,  0.181684
1322.00,  0.182150
1324.00,  0.182701
1326.00,  0.183354
1328.00,  0.184141
1330.00,  0.185067
1332.00,  0.186116
1334.00,  0.187306
1336.00,  0.188667
1338.00,  0.190204
1340.00,  0.191846
1342.00,  0.193605
1344.00,  0.195457
1346.00,  0.197356
1348.00,  0.199288
1350.00,  0.201185
1352.00,  0.203037
1354.00,  0.204851
1356.00,  0.206644
1358.00,  0.208381
1360.00,  0.210176
1362.00,  0.211995
1364.00,  0.213869
1366.00,  0.215719
1368.00,  0.217474
1370.00,  0.219116
1372.00,  0.220587
1374.00,  0.221917
1376.00,  0.223171
1378.00,  0.224415
1380.00,  0.225711
1382.00,  0.227074
1384.00,  0.228503
1386.00,  0.230005
1388.00,  0.231540
1390.00,  0.233129
1392.00,  0.234800
1394.00,  0.236605
1396.00,  0.238397
1398.00,  0.240309
1400.00,  0.242286
1402.00,  0.244449
1404.00,  0.246757
1406.00,  0.249218
1408.00,  0.251857
1410.00,  0.254597
1412.00,  0.257518
1414.00,  0.260515
1416.00,  0.263612
1418.00,  0.266757
1420.00,  0.269909
1422.00,  0.273103
1424.00,  0.276268
1426.00,  0.279410
1428.00,  0.282495
1430.00,  0.285483
1432.00,  0.288343
1434.00,  0.290996
1436.00,  0.293534
1438.00,  0.295982
1440.00,  0.298380
1442.00,  0.300740
1444.00,  0.303060
1446.00,  0.305336
1448.00,  0.307608
1450.00,  0.309785
1452.00,  0.311810
1454.00,  0.313713
1456.00,  0.315428
1458.00,  0.316961
1460.00,  0.318383
1462.00,  0.319674
1464.00,  0.320923
1466.00,  0.322205
1468.00,  0.323449
1470.00,  0.324730
1472.00,  0.325897
1474.00,  0.326925
1476.00,  0.327665
1478.00,  0.327955
1480.00,  0.327945
1482.00,  0.327591
1484.00,  0.327029
1486.00,  0.326277
1488.00,  0.325460
1490.00,  0.324649
1492.00,  0.323867
1494.00,  0.323177
1496.00,  0.322562
1498.00,  0.322047
1500.00,  0.321719
1502.00,  0.321492
1504.00,  0.321369
1506.00,  0.321391
1508.00,  0.321380
1510.00,  0.321404
1512.00,  0.321344
1514.00,  0.321239
1516.00,  0.321054
1518.00,  0.320704
1520.00,  0.320223
1522.00,  0.319590
1524.00,  0.318774
1526.00,  0.317838
1528.00,  0.316861
1530.00,  0.315817
1532.00,  0.314700
1534.00,  0.313598
1536.00,  0.312494
1538.00,  0.311491
1540.00,  0.310534
1542.00,  0.309691
1544.00,  0.308963
1546.00,  0.308339
1548.00,  0.307921
1550.00,  0.307603
1552.00,  0.307381
1554.00,  0.307266
1556.00,  0.307126
1558.00,  0.307007
1560.00,  0.306918
1562.00,  0.306842
1564.00,  0.306820
1566.00,  0.306786
1568.00,  0.306689
1570.00,  0.306603
1572.00,  0.306459
1574.00,  0.306334
1576.00,  0.306233
1578.00,  0.306066
1580.00,  0.305855
1582.00,  0.305563
1584.00,  0.305200
1586.00,  0.304813
1588.00,  0.304424
1590.00,  0.304025
1592.00,  0.303589
1594.00,  0.303059
1596.00,  0.302485
1598.00,  0.301833
1600.00,  0.301126
1602.00,  0.300432
1604.00,  0.299768
1606.00,  0.299044
1608.00,  0.298349
1610.00,  0.297648
1612.00,  0.296877
1614.00,  0.296125
1616.00,  0.295342
1618.00,  0.294553
1620.00,  0.293844
1622.00,  0.293193
1624.00,  0.292619
1626.00,  0.292149
1628.00,  0.291831
1630.00,  0.291591
1632.00,  0.291425
1634.00,  0.291287
1636.00,  0.291268
1638.00,  0.291269
1640.00,  0.291353
1642.00,  0.291448
1644.00,  0.291606
1646.00,  0.291940
1648.00,  0.292431
1650.00,  0.293142
1652.00,  0.294239
1654.00,  0.295607
1656.00,  0.297314
1658.00,  0.299291
1660.00,  0.301451
1662.00,  0.303722
1664.00,  0.306115
1666.00,  0.308591
1668.00,  0.311292
1670.00,  0.314146
1672.00,  0.317302
1674.00,  0.320680
1676.00,  0.324064
1678.00,  0.327396
1680.00,  0.330426
1682.00,  0.333115
1684.00,  0.335395
1686.00,  0.337325
1688.00,  0.339178
1690.00,  0.341263
1692.00,  0.343639
1694.00,  0.346170
1696.00,  0.348689
1698.00,  0.350993
1700.00,  0.352947
1702.00,  0.354636
1704.00,  0.356195
1706.00,  0.357858
1708.00,  0.359617
1710.00,  0.361587
1712.00,  0.363685
1714.00,  0.365771
1716.00,  0.367678
1718.00,  0.369353
1720.00,  0.370747
1722.00,  0.371888
1724.00,  0.372854
1726.00,  0.373762
1728.00,  0.374405
1730.00,  0.374840
1732.00,  0.374968
1734.00,  0.374606
1736.00,  0.373857
1738.00,  0.372603
1740.00,  0.370945
1742.00,  0.369048
1744.00,  0.367022
1746.00,  0.365037
1748.00,  0.363250
1750.00,  0.361753
1752.00,  0.360540
1754.00,  0.359661
1756.00,  0.359035
1758.00,  0.358701
1760.00,  0.358521
1762.00,  0.358386
1764.00,  0.358241
1766.00,  0.358168
1768.00,  0.358031
1770.00,  0.357935
1772.00,  0.357855
1774.00,  0.357882
1776.00,  0.357997
1778.00,  0.358152
1780.00,  0.358372
1782.00,  0.358692
1784.00,  0.358948
1786.00,  0.359221
1788.00,  0.359500
1790.00,  0.359775
1792.00,  0.359988
1794.00,  0.360070
1796.00,  0.360021
1798.00,  0.359870
1800.00,  0.359583
1802.00,  0.359207
1804.00,  0.358801
1806.00,  0.358370
1808.00,  0.357903
1810.00,  0.357421
1812.00,  0.356928
1814.00,  0.356480
1816.00,  0.356037
1818.00,  0.355640
1820.00,  0.355288
1822.00,  0.355025
1824.00,  0.354838
1826.00,  0.354573
1828.00,  0.354300
1830.00,  0.353947
1832.00,  0.353513
1834.00,  0.353023
1836.00,  0.352479
1838.00,  0.351928
1840.00,  0.351242
1842.00,  0.350613
1844.00,  0.349926
1846.00,  0.349292
1848.00,  0.348728
1850.00,  0.348263
1852.00,  0.347934
1854.00,  0.347710
1856.00,  0.347607
1858.00,  0.347562
1860.00,  0.347532
1862.00,  0.347461
1864.00,  0.347441
1866.00,  0.347475
1868.00,  0.347668
1870.00,  0.348088
1872.00,  0.348867
1874.00,  0.349899
1876.00,  0.351179
1878.00,  0.352845
1880.00,  0.354950
1882.00,  0.357699
1884.00,  0.361176
1886.00,  0.365437
1888.00,  0.370521
1890.00,  0.376470
1892.00,  0.383017
1894.00,  0.390060
1896.00,  0.397459
1898.00,  0.405105
1900.00,  0.412718
1902.00,  0.420382
1904.00,  0.427630
1906.00,  0.434507
1908.00,  0.440873
1910.00,  0.446804
1912.00,  0.452178
1914.00,  0.457082
1916.00,  0.461648
1918.00,  0.465722
1920.00,  0.469544
1922.00,  0.472830
1924.00,  0.475653
1926.00,  0.477902
1928.00,  0.479534
1930.00,  0.480410
1932.00,  0.480384
1934.00,  0.479442
1936.00,  0.477604
1938.00,  0.475012
1940.00,  0.471887
1942.00,  0.468421
1944.00,  0.464793
1946.00,  0.461135
1948.00,  0.457475
1950.00,  0.453967
1952.00,  0.450712
1954.00,  0.447721
1956.00,  0.444848
1958.00,  0.442202
1960.00,  0.439795
1962.00,  0.437560
1964.00,  0.435357
1966.00,  0.433330
1968.00,  0.431446
1970.00,  0.429579
1972.00,  0.427950
1974.00,  0.426305
1976.00,  0.424798
1978.00,  0.423344
1980.00,  0.421980
1982.00,  0.420712
1984.00,  0.419578
1986.00,  0.418456
1988.00,  0.417624
1990.00,  0.416711
1992.00,  0.416035
1994.00,  0.415386
1996.00,  0.414824
1998.00,  0.414363
2000.00,  0.414057
2002.00,  0.413894
2004.00,  0.413865
2006.00,  0.413987
2008.00,  0.414264
2010.00,  0.414797
2012.00,  0.415568
2014.00,  0.416664
2016.00,  0.417975
2018.00,  0.419559
2020.00,  0.421387
2022.00,  0.423581
2024.00,  0.426063
2026.00,  0.428775
2028.00,  0.431762
2030.00,  0.434942
2032.00,  0.438485
2034.00,  0.442203
2036.00,  0.446303
2038.00,  0.450603
2040.00,  0.455325
2042.00,  0.460302
2044.00,  0.465564
2046.00,  0.470900
2048.00,  0.476447
2050.00,  0.481966
2052.00,  0.487251
2054.00,  0.492287
2056.00,  0.497052
2058.00,  0.501852
2060.00,  0.506609
2062.00,  0.511300
2064.00,  0.515865
2066.00,  0.520219
2068.00,  0.524291
2070.00,  0.527974
2072.00,  0.531353
2074.00,  0.534369
2076.00,  0.537396
2078.00,  0.540319
2080.00,  0.543548
2082.00,  0.546817
2084.00,  0.550142
2086.00,  0.553766
2088.00,  0.557583
2090.00,  0.561373
2092.00,  0.565063
2094.00,  0.568864
2096.00,  0.572457
2098.00,  0.575547
2100.00,  0.578107
2102.00,  0.580023
2104.00,  0.581099
2106.00,  0.581718
2108.00,  0.581588
2110.00,  0.580788
2112.00,  0.579559
2114.00,  0.578140
2116.00,  0.576700
2118.00,  0.575379
2120.00,  0.574264
2122.00,  0.573300
2124.00,  0.572191
2126.00,  0.570524
2128.00,  0.568175
2130.00,  0.565237
2132.00,  0.561966
2134.00,  0.558446
2136.00,  0.554664
2138.00,  0.550965
2140.00,  0.547273
2142.00,  0.543633
2144.00,  0.540140
2146.00,  0.537180
2148.00,  0.534538
2150.00,  0.532437
2152.00,  0.530751
2154.00,  0.529299
2156.00,  0.527958
2158.00,  0.526697
2160.00,  0.525445
2162.00,  0.524037
2164.00,  0.522789
2166.00,  0.521649
2168.00,  0.520506
2170.00,  0.519325
2172.00,  0.518231
2174.00,  0.517225
2176.00,  0.516243
2178.00,  0.515574
2180.00,  0.515109
2182.00,  0.514762
2184.00,  0.514338
2186.00,  0.513856
2188.00,  0.513301
2190.00,  0.512770
2192.00,  0.512268
2194.00,  0.511928
2196.00,  0.511554
2198.00,  0.511409
2200.00,  0.511194
2202.00,  0.511333
2204.00,  0.511423
2206.00,  0.512104
2208.00,  0.512818
2210.00,  0.513840
2212.00,  0.515166
2214.00,  0.516606
2216.00,  0.518629
2218.00,  0.521017
2220.00,  0.523735
2222.00,  0.527059
2224.00,  0.530863
2226.00,  0.535259
2228.00,  0.540277
2230.00,  0.545974
2232.00,  0.552259
2234.00,  0.559748
2236.00,  0.568248
2238.00,  0.577739
2240.00,  0.588059
2242.00,  0.599647
2244.00,  0.612093
2246.00,  0.625678
2248.00,  0.639496
2250.00,  0.653968
2252.00,  0.667790
2254.00,  0.680989
2256.00,  0.693455
2258.00,  0.704930
2260.00,  0.714997
2262.00,  0.723889
2264.00,  0.731433
2266.00,  0.737054
2268.00,  0.741731
2270.00,  0.745431
2272.00,  0.748890
2274.00,  0.751724
2276.00,  0.753833
2278.00,  0.755306
2280.00,  0.755800
2282.00,  0.755306
2284.00,  0.754750
2286.00,  0.753694
2288.00,  0.752145
2290.00,  0.750552
2292.00,  0.748453
2294.00,  0.745211
2296.00,  0.742240
2298.00,  0.739373
2300.00,  0.737238
2302.00,  0.735626
2304.00,  0.734113
2306.00,  0.733536
2308.00,  0.733273
2310.00,  0.732050
2312.00,  0.730558
2314.00,  0.728217
2316.00,  0.725445
2318.00,  0.721972
2320.00,  0.719136
2322.00,  0.716907
2324.00,  0.715210
2326.00,  0.714524
2328.00,  0.714365
2330.00,  0.714740
2332.00,  0.715688
2334.00,  0.717271
2336.00,  0.719056
2338.00,  0.721812
2340.00,  0.724849
2342.00,  0.728617
2344.00,  0.732141
2346.00,  0.735143
2348.00,  0.737419
2350.00,  0.738583
2352.00,  0.738941
2354.00,  0.738478
2356.00,  0.737439
2358.00,  0.735737
2360.00,  0.733516
2362.00,  0.730981
2364.00,  0.728334
2366.00,  0.726359
2368.00,  0.724955
2370.00,  0.723537
2372.00,  0.722135
2374.00,  0.720303
2376.00,  0.718246
2378.00,  0.716513
2380.00,  0.715454
2382.00,  0.714918
2384.00,  0.714421
2386.00,  0.714176
2388.00,  0.713976
2390.00,  0.713919
2392.00,  0.713933
2394.00,  0.713670
2396.00,  0.713875
2398.00,  0.714146
2400.00,  0.714908
2402.00,  0.715260
2404.00,  0.715517
2406.00,  0.716019
2408.00,  0.715974
2410.00,  0.717383
2412.00,  0.719659
2414.00,  0.722383
2416.00,  0.725935
2418.00,  0.730245
2420.00,  0.734231
2422.00,  0.738803
2424.00,  0.742805
2426.00,  0.747321
2428.00,  0.751509
2430.00,  0.755995
2432.00,  0.760358
2434.00,  0.765142
2436.00,  0.769939
2438.00,  0.774757
2440.00,  0.779725
2442.00,  0.785253
2444.00,  0.790190
2446.00,  0.795340
2448.00,  0.801113
2450.00,  0.806434
2452.00,  0.812097
2454.00,  0.818260
2456.00,  0.824000
2458.00,  0.829152
2460.00,  0.835568
2462.00,  0.840639
2464.00,  0.846603
2466.00,  0.851605
2468.00,  0.857122
2470.00,  0.861952
2472.00,  0.866354
2474.00,  0.870554
2476.00,  0.874316
2478.00,  0.877045
2480.00,  0.879995
2482.00,  0.880979
2484.00,  0.882002
2486.00,  0.883607
2488.00,  0.884652
2490.00,  0.884634
2492.00,  0.885273
2494.00,  0.885251
2496.00,  0.885034
2498.00,  0.885560
##END

##PRODUCT: Acetone_2
##SAMPLE NAME: LC1504597
##DATE: 23-Jul-2015
##TIME: 13:21:57
##Instrument S/N: 6123
##OPERATOR ID: 72124734
##SPECTROPHOTOMETER: NIRSystems Model 6500 
##AMPLIFIER: Reflectance
##NUMBER OF CONSTITUENTS: 0
##TRANSDUCER: 1,     0.000120
##TRANSDUCER: 2,     0.000009
##TRANSDUCER: 3,     2.927681
##SPECTRUM:
1100.00,  0.167569
1102.00,  0.167545
1104.00,  0.167596
1106.00,  0.167745
1108.00,  0.167941
1110.00,  0.168208
1112.00,  0.168578
1114.00,  0.168997
1116.00,  0.169472
1118.00,  0.170013
1120.00,  0.170639
1122.00,  0.171323
1124.00,  0.172112
1126.00,  0.172987
1128.00,  0.173965
1130.00,  0.175009
1132.00,  0.176140
1134.00,  0.177312
1136.00,  0.178457
1138.00,  0.179542
1140.00,  0.180644
1142.00,  0.181660
1144.00,  0.182613
1146.00,  0.183570
1148.00,  0.184549
1150.00,  0.185518
1152.00,  0.186583
1154.00,  0.187684
1156.00,  0.188902
1158.00,  0.190224
1160.00,  0.191616
1162.00,  0.193040
1164.00,  0.194418
1166.00,  0.195810
1168.00,  0.197142
1170.00,  0.198416
1172.00,  0.199589
1174.00,  0.200672
1176.00,  0.201671
1178.00,  0.202535
1180.00,  0.203295
1182.00,  0.203965
1184.00,  0.204633
1186.00,  0.205200
1188.00,  0.205816
1190.00,  0.206416
1192.00,  0.207085
1194.00,  0.207846
1196.00,  0.208668
1198.00,  0.209572
1200.00,  0.210485
1202.00,  0.211394
1204.00,  0.212289
1206.00,  0.213135
1208.00,  0.213892
1210.00,  0.214586
1212.00,  0.215203
1214.00,  0.215766
1216.00,  0.216214
1218.00,  0.216575
1220.00,  0.216800
1222.00,  0.216897
1224.00,  0.216842
1226.00,  0.216594
1228.00,  0.216201
1230.00,  0.215680
1232.00,  0.215029
1234.00,  0.214334
1236.00,  0.213591
1238.00,  0.212766
1240.00,  0.211955
1242.00,  0.211093
1244.00,  0.210228
1246.00,  0.209366
1248.00,  0.208538
1250.00,  0.207725
1252.00,  0.206977
1254.00,  0.206231
1256.00,  0.205559
1258.00,  0.204945
1260.00,  0.204369
1262.00,  0.203875
1264.00,  0.203409
1266.00,  0.202955
1268.00,  0.202560
1270.00,  0.202140
1272.00,  0.201759
1274.00,  0.201368
1276.00,  0.201025
1278.00,  0.200672
1280.00,  0.200345
1282.00,  0.200015
1284.00,  0.199717
1286.00,  0.199429
1288.00,  0.199155
1290.00,  0.198888
1292.00,  0.198637
1294.00,  0.198405
1296.00,  0.198237
1298.00,  0.198076
1300.00,  0.197958
1302.00,  0.197875
1304.00,  0.197839
1306.00,  0.197831
1308.00,  0.197887
1310.00,  0.197982
1312.00,  0.198122
1314.00,  0.198316
1316.00,  0.198559
1318.00,  0.198829
1320.00,  0.199129
1322.00,  0.199545
1324.00,  0.200040
1326.00,  0.200613
1328.00,  0.201294
1330.00,  0.202110
1332.00,  0.203052
1334.00,  0.204161
1336.00,  0.205399
1338.00,  0.206775
1340.00,  0.208288
1342.00,  0.209872
1344.00,  0.211560
1346.00,  0.213280
1348.00,  0.215046
1350.00,  0.216799
1352.00,  0.218501
1354.00,  0.220181
1356.00,  0.221838
1358.00,  0.223488
1360.00,  0.225194
1362.00,  0.226929
1364.00,  0.228711
1366.00,  0.230481
1368.00,  0.232173
1370.00,  0.233729
1372.00,  0.235126
1374.00,  0.236385
1376.00,  0.237561
1378.00,  0.238731
1380.00,  0.239913
1382.00,  0.241144
1384.00,  0.242446
1386.00,  0.243792
1388.00,  0.245155
1390.00,  0.246502
1392.00,  0.247910
1394.00,  0.249334
1396.00,  0.250792
1398.00,  0.252364
1400.00,  0.254027
1402.00,  0.255829
1404.00,  0.257845
1406.00,  0.259971
1408.00,  0.262264
1410.00,  0.264701
1412.00,  0.267337
1414.00,  0.270096
1416.00,  0.272976
1418.00,  0.275938
1420.00,  0.278943
1422.00,  0.282007
1424.00,  0.285069
1426.00,  0.288081
1428.00,  0.291084
1430.00,  0.293914
1432.00,  0.296627
1434.00,  0.299109
1436.00,  0.301519
1438.00,  0.303813
1440.00,  0.306036
1442.00,  0.308179
1444.00,  0.310345
1446.00,  0.312458
1448.00,  0.314563
1450.00,  0.316572
1452.00,  0.318480
1454.00,  0.320248
1456.00,  0.321843
1458.00,  0.323325
1460.00,  0.324650
1462.00,  0.325917
1464.00,  0.327122
1466.00,  0.328328
1468.00,  0.329542
1470.00,  0.330727
1472.00,  0.331793
1474.00,  0.332700
1476.00,  0.333362
1478.00,  0.333624
1480.00,  0.333583
1482.00,  0.333232
1484.00,  0.332697
1486.00,  0.331975
1488.00,  0.331237
1490.00,  0.330507
1492.00,  0.329788
1494.00,  0.329150
1496.00,  0.328589
1498.00,  0.328130
1500.00,  0.327792
1502.00,  0.327534
1504.00,  0.327335
1506.00,  0.327234
1508.00,  0.327115
1510.00,  0.327022
1512.00,  0.326828
1514.00,  0.326625
1516.00,  0.326314
1518.00,  0.325882
1520.00,  0.325346
1522.00,  0.324675
1524.00,  0.323865
1526.00,  0.322924
1528.00,  0.321975
1530.00,  0.321001
1532.00,  0.320004
1534.00,  0.319013
1536.00,  0.318014
1538.00,  0.317125
1540.00,  0.316324
1542.00,  0.315567
1544.00,  0.314948
1546.00,  0.314477
1548.00,  0.314114
1550.00,  0.313921
1552.00,  0.313774
1554.00,  0.313657
1556.00,  0.313598
1558.00,  0.313575
1560.00,  0.313552
1562.00,  0.313541
1564.00,  0.313561
1566.00,  0.313541
1568.00,  0.313512
1570.00,  0.313449
1572.00,  0.313379
1574.00,  0.313315
1576.00,  0.313216
1578.00,  0.313069
1580.00,  0.312891
1582.00,  0.312656
1584.00,  0.312347
1586.00,  0.312028
1588.00,  0.311680
1590.00,  0.311344
1592.00,  0.310949
1594.00,  0.310508
1596.00,  0.309991
1598.00,  0.309444
1600.00,  0.308868
1602.00,  0.308273
1604.00,  0.307688
1606.00,  0.307135
1608.00,  0.306536
1610.00,  0.305983
1612.00,  0.305387
1614.00,  0.304767
1616.00,  0.304124
1618.00,  0.303527
1620.00,  0.303002
1622.00,  0.302568
1624.00,  0.302152
1626.00,  0.301887
1628.00,  0.301718
1630.00,  0.301607
1632.00,  0.301571
1634.00,  0.301591
1636.00,  0.301636
1638.00,  0.301724
1640.00,  0.301867
1642.00,  0.302079
1644.00,  0.302335
1646.00,  0.302688
1648.00,  0.303214
1650.00,  0.303979
1652.00,  0.305087
1654.00,  0.306459
1656.00,  0.308163
1658.00,  0.310100
1660.00,  0.312138
1662.00,  0.314333
1664.00,  0.316563
1666.00,  0.318910
1668.00,  0.321434
1670.00,  0.324150
1672.00,  0.327127
1674.00,  0.330299
1676.00,  0.333477
1678.00,  0.336670
1680.00,  0.339582
1682.00,  0.342195
1684.00,  0.344411
1686.00,  0.346376
1688.00,  0.348304
1690.00,  0.350415
1692.00,  0.352772
1694.00,  0.355317
1696.00,  0.357778
1698.00,  0.360061
1700.00,  0.361987
1702.00,  0.363693
1704.00,  0.365323
1706.00,  0.366931
1708.00,  0.368674
1710.00,  0.370559
1712.00,  0.372528
1714.00,  0.374479
1716.00,  0.376313
1718.00,  0.377901
1720.00,  0.379246
1722.00,  0.380438
1724.00,  0.381485
1726.00,  0.382439
1728.00,  0.383231
1730.00,  0.383796
1732.00,  0.383999
1734.00,  0.383825
1736.00,  0.383253
1738.00,  0.382143
1740.00,  0.380681
1742.00,  0.378868
1744.00,  0.376951
1746.00,  0.375053
1748.00,  0.373238
1750.00,  0.371722
1752.00,  0.370456
1754.00,  0.369537
1756.00,  0.368852
1758.00,  0.368397
1760.00,  0.368106
1762.00,  0.367911
1764.00,  0.367748
1766.00,  0.367563
1768.00,  0.367455
1770.00,  0.367307
1772.00,  0.367265
1774.00,  0.367282
1776.00,  0.367413
1778.00,  0.367650
1780.00,  0.367893
1782.00,  0.368202
1784.00,  0.368511
1786.00,  0.368820
1788.00,  0.369138
1790.00,  0.369462
1792.00,  0.369692
1794.00,  0.369845
1796.00,  0.369853
1798.00,  0.369738
1800.00,  0.369478
1802.00,  0.369160
1804.00,  0.368786
1806.00,  0.368406
1808.00,  0.368000
1810.00,  0.367570
1812.00,  0.367105
1814.00,  0.366654
1816.00,  0.366223
1818.00,  0.365852
1820.00,  0.365534
1822.00,  0.365274
1824.00,  0.365090
1826.00,  0.364901
1828.00,  0.364641
1830.00,  0.364271
1832.00,  0.363900
1834.00,  0.363406
1836.00,  0.362897
1838.00,  0.362332
1840.00,  0.361767
1842.00,  0.361143
1844.00,  0.360537
1846.00,  0.359967
1848.00,  0.359452
1850.00,  0.359006
1852.00,  0.358654
1854.00,  0.358385
1856.00,  0.358248
1858.00,  0.358118
1860.00,  0.357995
1862.00,  0.357785
1864.00,  0.357509
1866.00,  0.357303
1868.00,  0.357192
1870.00,  0.357378
1872.00,  0.357755
1874.00,  0.358361
1876.00,  0.359095
1878.00,  0.360163
1880.00,  0.361491
1882.00,  0.363353
1884.00,  0.365770
1886.00,  0.368810
1888.00,  0.372524
1890.00,  0.376987
1892.00,  0.382009
1894.00,  0.387420
1896.00,  0.393236
1898.00,  0.399287
1900.00,  0.405504
1902.00,  0.411757
1904.00,  0.417695
1906.00,  0.423456
1908.00,  0.428765
1910.00,  0.433772
1912.00,  0.438355
1914.00,  0.442678
1916.00,  0.446574
1918.00,  0.450257
1920.00,  0.453599
1922.00,  0.456543
1924.00,  0.459138
1926.00,  0.461251
1928.00,  0.462706
1930.00,  0.463492
1932.00,  0.463477
1934.00,  0.462712
1936.00,  0.461117
1938.00,  0.458870
1940.00,  0.456063
1942.00,  0.453057
1944.00,  0.449890
1946.00,  0.446656
1948.00,  0.443468
1950.00,  0.440534
1952.00,  0.437703
1954.00,  0.435179
1956.00,  0.432845
1958.00,  0.430631
1960.00,  0.428684
1962.00,  0.426864
1964.00,  0.425176
1966.00,  0.423553
1968.00,  0.421984
1970.00,  0.420596
1972.00,  0.419250
1974.00,  0.418006
1976.00,  0.416839
1978.00,  0.415716
1980.00,  0.414748
1982.00,  0.413826
1984.00,  0.413040
1986.00,  0.412356
1988.00,  0.411780
1990.00,  0.411265
1992.00,  0.410944
1994.00,  0.410708
1996.00,  0.410514
1998.00,  0.410457
2000.00,  0.410528
2002.00,  0.410703
2004.00,  0.411130
2006.00,  0.411532
2008.00,  0.412208
2010.00,  0.413113
2012.00,  0.414155
2014.00,  0.415482
2016.00,  0.417018
2018.00,  0.418869
2020.00,  0.420937
2022.00,  0.423363
2024.00,  0.426076
2026.00,  0.429054
2028.00,  0.432156
2030.00,  0.435488
2032.00,  0.439307
2034.00,  0.443152
2036.00,  0.447277
2038.00,  0.451678
2040.00,  0.456408
2042.00,  0.461257
2044.00,  0.466406
2046.00,  0.471650
2048.00,  0.476965
2050.00,  0.482171
2052.00,  0.487266
2054.00,  0.492089
2056.00,  0.496673
2058.00,  0.501312
2060.00,  0.505671
2062.00,  0.510091
2064.00,  0.514262
2066.00,  0.518364
2068.00,  0.522032
2070.00,  0.525489
2072.00,  0.528562
2074.00,  0.531548
2076.00,  0.534348
2078.00,  0.537199
2080.00,  0.540177
2082.00,  0.543145
2084.00,  0.546402
2086.00,  0.549819
2088.00,  0.553286
2090.00,  0.556836
2092.00,  0.560250
2094.00,  0.563705
2096.00,  0.566906
2098.00,  0.569664
2100.00,  0.571894
2102.00,  0.573474
2104.00,  0.574417
2106.00,  0.574876
2108.00,  0.574512
2110.00,  0.573676
2112.00,  0.572351
2114.00,  0.571002
2116.00,  0.569602
2118.00,  0.568300
2120.00,  0.567245
2122.00,  0.566226
2124.00,  0.565021
2126.00,  0.563326
2128.00,  0.561032
2130.00,  0.558228
2132.00,  0.555238
2134.00,  0.551843
2136.00,  0.548477
2138.00,  0.545058
2140.00,  0.541638
2142.00,  0.538351
2144.00,  0.535144
2146.00,  0.532354
2148.00,  0.530021
2150.00,  0.528039
2152.00,  0.526453
2154.00,  0.525161
2156.00,  0.524044
2158.00,  0.522805
2160.00,  0.521626
2162.00,  0.520335
2164.00,  0.519190
2166.00,  0.518182
2168.00,  0.517084
2170.00,  0.515958
2172.00,  0.514970
2174.00,  0.514014
2176.00,  0.513341
2178.00,  0.512587
2180.00,  0.512185
2182.00,  0.511868
2184.00,  0.511517
2186.00,  0.511020
2188.00,  0.510636
2190.00,  0.510043
2192.00,  0.509628
2194.00,  0.509404
2196.00,  0.509154
2198.00,  0.509115
2200.00,  0.509083
2202.00,  0.509287
2204.00,  0.509515
2206.00,  0.509991
2208.00,  0.510581
2210.00,  0.511528
2212.00,  0.512679
2214.00,  0.514224
2216.00,  0.516015
2218.00,  0.518258
2220.00,  0.520701
2222.00,  0.523907
2224.00,  0.527407
2226.00,  0.531592
2228.00,  0.536196
2230.00,  0.541440
2232.00,  0.547490
2234.00,  0.554360
2236.00,  0.562212
2238.00,  0.571071
2240.00,  0.580863
2242.00,  0.591772
2244.00,  0.603621
2246.00,  0.616246
2248.00,  0.629524
2250.00,  0.643075
2252.00,  0.656588
2254.00,  0.669512
2256.00,  0.681697
2258.00,  0.692902
2260.00,  0.703184
2262.00,  0.712266
2264.00,  0.719805
2266.00,  0.726158
2268.00,  0.731178
2270.00,  0.735151
2272.00,  0.739026
2274.00,  0.741915
2276.00,  0.744561
2278.00,  0.746018
2280.00,  0.746803
2282.00,  0.746656
2284.00,  0.745959
2286.00,  0.745228
2288.00,  0.743824
2290.00,  0.742012
2292.00,  0.739282
2294.00,  0.736539
2296.00,  0.733285
2298.00,  0.730477
2300.00,  0.728239
2302.00,  0.726585
2304.00,  0.725373
2306.00,  0.724736
2308.00,  0.724076
2310.00,  0.722774
2312.00,  0.721113
2314.00,  0.718608
2316.00,  0.715618
2318.00,  0.712218
2320.00,  0.709230
2322.00,  0.706909
2324.00,  0.705493
2326.00,  0.704691
2328.00,  0.704404
2330.00,  0.704951
2332.00,  0.705885
2334.00,  0.707396
2336.00,  0.709036
2338.00,  0.711367
2340.00,  0.714253
2342.00,  0.717711
2344.00,  0.720734
2346.00,  0.723646
2348.00,  0.725780
2350.00,  0.726890
2352.00,  0.726987
2354.00,  0.726789
2356.00,  0.725560
2358.00,  0.723621
2360.00,  0.721292
2362.00,  0.718669
2364.00,  0.716198
2366.00,  0.714128
2368.00,  0.712516
2370.00,  0.711252
2372.00,  0.710042
2374.00,  0.708390
2376.00,  0.706503
2378.00,  0.704930
2380.00,  0.704018
2382.00,  0.703701
2384.00,  0.703172
2386.00,  0.703235
2388.00,  0.703168
2390.00,  0.703000
2392.00,  0.702953
2394.00,  0.703065
2396.00,  0.703054
2398.00,  0.703368
2400.00,  0.703840
2402.00,  0.704090
2404.00,  0.704007
2406.00,  0.704313
2408.00,  0.704939
2410.00,  0.705815
2412.00,  0.708005
2414.00,  0.710817
2416.00,  0.714152
2418.00,  0.717989
2420.00,  0.721843
2422.00,  0.726040
2424.00,  0.730476
2426.00,  0.734854
2428.00,  0.738963
2430.00,  0.743120
2432.00,  0.747630
2434.00,  0.752204
2436.00,  0.756646
2438.00,  0.761526
2440.00,  0.766555
2442.00,  0.771636
2444.00,  0.776924
2446.00,  0.781970
2448.00,  0.787402
2450.00,  0.793040
2452.00,  0.798731
2454.00,  0.804335
2456.00,  0.809871
2458.00,  0.815652
2460.00,  0.820893
2462.00,  0.826195
2464.00,  0.831830
2466.00,  0.837651
2468.00,  0.842536
2470.00,  0.847156
2472.00,  0.851755
2474.00,  0.855949
2476.00,  0.859532
2478.00,  0.862498
2480.00,  0.864461
2482.00,  0.866068
2484.00,  0.867404
2486.00,  0.869024
2488.00,  0.869525
2490.00,  0.870130
2492.00,  0.869648
2494.00,  0.870851
2496.00,  0.870128
2498.00,  0.870486
##END

##PRODUCT: Acetone_2
##SAMPLE NAME: LC1504597 TW2
##DATE: 27-Jul-2015
##TIME: 14:54:43
##Instrument S/N: 6123
##OPERATOR ID: 72124734
##SPECTROPHOTOMETER: NIRSystems Model 6500 
##AMPLIFIER: Reflectance
##NUMBER OF CONSTITUENTS: 0
##TRANSDUCER: 1,     0.000180
##TRANSDUCER: 2,     0.000034
##TRANSDUCER: 3,     2.927549
##SPECTRUM:
1100.00,  0.160944
1102.00,  0.160916
1104.00,  0.160948
1106.00,  0.161085
1108.00,  0.161291
1110.00,  0.161557
1112.00,  0.161920
1114.00,  0.162337
1116.00,  0.162808
1118.00,  0.163361
1120.00,  0.163971
1122.00,  0.164671
1124.00,  0.165428
1126.00,  0.166279
1128.00,  0.167227
1130.00,  0.168262
1132.00,  0.169356
1134.00,  0.170512
1136.00,  0.171638
1138.00,  0.172745
1140.00,  0.173798
1142.00,  0.174808
1144.00,  0.175776
1146.00,  0.176737
1148.00,  0.177700
1150.00,  0.178682
1152.00,  0.179725
1154.00,  0.180823
1156.00,  0.182039
1158.00,  0.183366
1160.00,  0.184751
1162.00,  0.186174
1164.00,  0.187570
1166.00,  0.188945
1168.00,  0.190271
1170.00,  0.191526
1172.00,  0.192709
1174.00,  0.193807
1176.00,  0.194775
1178.00,  0.195664
1180.00,  0.196437
1182.00,  0.197114
1184.00,  0.197749
1186.00,  0.198340
1188.00,  0.198920
1190.00,  0.199546
1192.00,  0.200202
1194.00,  0.200958
1196.00,  0.201763
1198.00,  0.202662
1200.00,  0.203587
1202.00,  0.204478
1204.00,  0.205370
1206.00,  0.206227
1208.00,  0.206987
1210.00,  0.207704
1212.00,  0.208333
1214.00,  0.208861
1216.00,  0.209335
1218.00,  0.209704
1220.00,  0.209935
1222.00,  0.210024
1224.00,  0.209987
1226.00,  0.209762
1228.00,  0.209369
1230.00,  0.208849
1232.00,  0.208230
1234.00,  0.207542
1236.00,  0.206798
1238.00,  0.206007
1240.00,  0.205176
1242.00,  0.204319
1244.00,  0.203474
1246.00,  0.202628
1248.00,  0.201793
1250.00,  0.200989
1252.00,  0.200230
1254.00,  0.199481
1256.00,  0.198812
1258.00,  0.198203
1260.00,  0.197654
1262.00,  0.197153
1264.00,  0.196676
1266.00,  0.196239
1268.00,  0.195845
1270.00,  0.195456
1272.00,  0.195087
1274.00,  0.194725
1276.00,  0.194368
1278.00,  0.194029
1280.00,  0.193673
1282.00,  0.193372
1284.00,  0.193076
1286.00,  0.192820
1288.00,  0.192543
1290.00,  0.192277
1292.00,  0.192019
1294.00,  0.191801
1296.00,  0.191613
1298.00,  0.191467
1300.00,  0.191359
1302.00,  0.191288
1304.00,  0.191245
1306.00,  0.191247
1308.00,  0.191291
1310.00,  0.191384
1312.00,  0.191530
1314.00,  0.191716
1316.00,  0.191948
1318.00,  0.192235
1320.00,  0.192554
1322.00,  0.192977
1324.00,  0.193477
1326.00,  0.194030
1328.00,  0.194713
1330.00,  0.195522
1332.00,  0.196431
1334.00,  0.197522
1336.00,  0.198733
1338.00,  0.200101
1340.00,  0.201556
1342.00,  0.203171
1344.00,  0.204838
1346.00,  0.206553
1348.00,  0.208319
1350.00,  0.210054
1352.00,  0.211740
1354.00,  0.213427
1356.00,  0.215063
1358.00,  0.216705
1360.00,  0.218400
1362.00,  0.220111
1364.00,  0.221885
1366.00,  0.223628
1368.00,  0.225324
1370.00,  0.226890
1372.00,  0.228284
1374.00,  0.229546
1376.00,  0.230732
1378.00,  0.231867
1380.00,  0.233042
1382.00,  0.234277
1384.00,  0.235589
1386.00,  0.236935
1388.00,  0.238296
1390.00,  0.239697
1392.00,  0.241100
1394.00,  0.242530
1396.00,  0.244032
1398.00,  0.245581
1400.00,  0.247249
1402.00,  0.249053
1404.00,  0.250986
1406.00,  0.253115
1408.00,  0.255394
1410.00,  0.257822
1412.00,  0.260467
1414.00,  0.263191
1416.00,  0.266058
1418.00,  0.269043
1420.00,  0.272106
1422.00,  0.275173
1424.00,  0.278203
1426.00,  0.281223
1428.00,  0.284180
1430.00,  0.286998
1432.00,  0.289742
1434.00,  0.292288
1436.00,  0.294682
1438.00,  0.296963
1440.00,  0.299056
1442.00,  0.301206
1444.00,  0.303354
1446.00,  0.305456
1448.00,  0.307550
1450.00,  0.309571
1452.00,  0.311450
1454.00,  0.313224
1456.00,  0.314802
1458.00,  0.316283
1460.00,  0.317614
1462.00,  0.318872
1464.00,  0.320100
1466.00,  0.321299
1468.00,  0.322515
1470.00,  0.323698
1472.00,  0.324848
1474.00,  0.325788
1476.00,  0.326460
1478.00,  0.326760
1480.00,  0.326759
1482.00,  0.326422
1484.00,  0.325828
1486.00,  0.325129
1488.00,  0.324327
1490.00,  0.323536
1492.00,  0.322729
1494.00,  0.322043
1496.00,  0.321498
1498.00,  0.321001
1500.00,  0.320634
1502.00,  0.320443
1504.00,  0.320363
1506.00,  0.320308
1508.00,  0.320336
1510.00,  0.320359
1512.00,  0.320330
1514.00,  0.320202
1516.00,  0.320014
1518.00,  0.319652
1520.00,  0.319181
1522.00,  0.318502
1524.00,  0.317678
1526.00,  0.316725
1528.00,  0.315718
1530.00,  0.314657
1532.00,  0.313549
1534.00,  0.312410
1536.00,  0.311339
1538.00,  0.310281
1540.00,  0.309364
1542.00,  0.308549
1544.00,  0.307817
1546.00,  0.307238
1548.00,  0.306799
1550.00,  0.306482
1552.00,  0.306285
1554.00,  0.306110
1556.00,  0.305972
1558.00,  0.305903
1560.00,  0.305838
1562.00,  0.305778
1564.00,  0.305812
1566.00,  0.305765
1568.00,  0.305699
1570.00,  0.305639
1572.00,  0.305554
1574.00,  0.305506
1576.00,  0.305393
1578.00,  0.305297
1580.00,  0.305143
1582.00,  0.304904
1584.00,  0.304624
1586.00,  0.304320
1588.00,  0.304000
1590.00,  0.303696
1592.00,  0.303337
1594.00,  0.302923
1596.00,  0.302428
1598.00,  0.301912
1600.00,  0.301346
1602.00,  0.300789
1604.00,  0.300236
1606.00,  0.299649
1608.00,  0.299113
1610.00,  0.298578
1612.00,  0.297985
1614.00,  0.297363
1616.00,  0.296791
1618.00,  0.296236
1620.00,  0.295672
1622.00,  0.295234
1624.00,  0.294860
1626.00,  0.294569
1628.00,  0.294368
1630.00,  0.294268
1632.00,  0.294211
1634.00,  0.294216
1636.00,  0.294281
1638.00,  0.294367
1640.00,  0.294517
1642.00,  0.294719
1644.00,  0.294961
1646.00,  0.295303
1648.00,  0.295819
1650.00,  0.296598
1652.00,  0.297668
1654.00,  0.299022
1656.00,  0.300650
1658.00,  0.302560
1660.00,  0.304560
1662.00,  0.306726
1664.00,  0.308943
1666.00,  0.311280
1668.00,  0.313785
1670.00,  0.316490
1672.00,  0.319453
1674.00,  0.322616
1676.00,  0.325904
1678.00,  0.329101
1680.00,  0.332044
1682.00,  0.334683
1684.00,  0.336974
1686.00,  0.338963
1688.00,  0.340932
1690.00,  0.343051
1692.00,  0.345402
1694.00,  0.347954
1696.00,  0.350463
1698.00,  0.352804
1700.00,  0.354788
1702.00,  0.356490
1704.00,  0.358141
1706.00,  0.359786
1708.00,  0.361566
1710.00,  0.363448
1712.00,  0.365415
1714.00,  0.367350
1716.00,  0.369223
1718.00,  0.370822
1720.00,  0.372246
1722.00,  0.373434
1724.00,  0.374500
1726.00,  0.375496
1728.00,  0.376240
1730.00,  0.376829
1732.00,  0.377080
1734.00,  0.376909
1736.00,  0.376334
1738.00,  0.375246
1740.00,  0.373821
1742.00,  0.372016
1744.00,  0.370071
1746.00,  0.368090
1748.00,  0.366316
1750.00,  0.364768
1752.00,  0.363492
1754.00,  0.362531
1756.00,  0.361825
1758.00,  0.361361
1760.00,  0.361077
1762.00,  0.360867
1764.00,  0.360697
1766.00,  0.360564
1768.00,  0.360440
1770.00,  0.360327
1772.00,  0.360244
1774.00,  0.360268
1776.00,  0.360395
1778.00,  0.360606
1780.00,  0.360928
1782.00,  0.361186
1784.00,  0.361505
1786.00,  0.361800
1788.00,  0.362181
1790.00,  0.362505
1792.00,  0.362748
1794.00,  0.362890
1796.00,  0.362915
1798.00,  0.362798
1800.00,  0.362562
1802.00,  0.362171
1804.00,  0.361846
1806.00,  0.361494
1808.00,  0.361044
1810.00,  0.360633
1812.00,  0.360191
1814.00,  0.359730
1816.00,  0.359324
1818.00,  0.358943
1820.00,  0.358593
1822.00,  0.358341
1824.00,  0.358169
1826.00,  0.357990
1828.00,  0.357718
1830.00,  0.357371
1832.00,  0.356956
1834.00,  0.356482
1836.00,  0.355989
1838.00,  0.355439
1840.00,  0.354816
1842.00,  0.354243
1844.00,  0.353601
1846.00,  0.353062
1848.00,  0.352498
1850.00,  0.352064
1852.00,  0.351747
1854.00,  0.351444
1856.00,  0.351269
1858.00,  0.351180
1860.00,  0.351095
1862.00,  0.350938
1864.00,  0.350696
1866.00,  0.350479
1868.00,  0.350387
1870.00,  0.350514
1872.00,  0.350924
1874.00,  0.351553
1876.00,  0.352288
1878.00,  0.353314
1880.00,  0.354679
1882.00,  0.356545
1884.00,  0.358952
1886.00,  0.362027
1888.00,  0.365794
1890.00,  0.370316
1892.00,  0.375399
1894.00,  0.380913
1896.00,  0.386925
1898.00,  0.393098
1900.00,  0.399464
1902.00,  0.405890
1904.00,  0.412040
1906.00,  0.418008
1908.00,  0.423484
1910.00,  0.428596
1912.00,  0.433346
1914.00,  0.437660
1916.00,  0.441783
1918.00,  0.445505
1920.00,  0.448944
1922.00,  0.451949
1924.00,  0.454644
1926.00,  0.456741
1928.00,  0.458318
1930.00,  0.459057
1932.00,  0.459134
1934.00,  0.458275
1936.00,  0.456618
1938.00,  0.454327
1940.00,  0.451617
1942.00,  0.448455
1944.00,  0.445182
1946.00,  0.441963
1948.00,  0.438702
1950.00,  0.435665
1952.00,  0.432787
1954.00,  0.430183
1956.00,  0.427727
1958.00,  0.425461
1960.00,  0.423415
1962.00,  0.421543
1964.00,  0.419746
1966.00,  0.418107
1968.00,  0.416512
1970.00,  0.415030
1972.00,  0.413678
1974.00,  0.412411
1976.00,  0.411090
1978.00,  0.409910
1980.00,  0.408904
1982.00,  0.407926
1984.00,  0.407089
1986.00,  0.406388
1988.00,  0.405744
1990.00,  0.405181
1992.00,  0.404811
1994.00,  0.404494
1996.00,  0.404238
1998.00,  0.404096
2000.00,  0.404097
2002.00,  0.404208
2004.00,  0.404492
2006.00,  0.404845
2008.00,  0.405510
2010.00,  0.406322
2012.00,  0.407362
2014.00,  0.408542
2016.00,  0.410080
2018.00,  0.411890
2020.00,  0.413994
2022.00,  0.416360
2024.00,  0.418952
2026.00,  0.421804
2028.00,  0.424908
2030.00,  0.428192
2032.00,  0.431797
2034.00,  0.435599
2036.00,  0.439756
2038.00,  0.444104
2040.00,  0.448766
2042.00,  0.453613
2044.00,  0.458649
2046.00,  0.463783
2048.00,  0.469099
2050.00,  0.474324
2052.00,  0.479275
2054.00,  0.484152
2056.00,  0.488776
2058.00,  0.493170
2060.00,  0.497554
2062.00,  0.501936
2064.00,  0.506104
2066.00,  0.510138
2068.00,  0.513835
2070.00,  0.517185
2072.00,  0.520348
2074.00,  0.523272
2076.00,  0.526112
2078.00,  0.528884
2080.00,  0.531851
2082.00,  0.534854
2084.00,  0.538069
2086.00,  0.541406
2088.00,  0.544794
2090.00,  0.548323
2092.00,  0.551744
2094.00,  0.555157
2096.00,  0.558231
2098.00,  0.561074
2100.00,  0.563343
2102.00,  0.564869
2104.00,  0.565930
2106.00,  0.566314
2108.00,  0.566125
2110.00,  0.565243
2112.00,  0.564011
2114.00,  0.562623
2116.00,  0.561119
2118.00,  0.559761
2120.00,  0.558751
2122.00,  0.557752
2124.00,  0.556583
2126.00,  0.554915
2128.00,  0.552838
2130.00,  0.550006
2132.00,  0.546996
2134.00,  0.543647
2136.00,  0.540224
2138.00,  0.536967
2140.00,  0.533493
2142.00,  0.530208
2144.00,  0.527045
2146.00,  0.524289
2148.00,  0.521719
2150.00,  0.519902
2152.00,  0.518303
2154.00,  0.516969
2156.00,  0.515721
2158.00,  0.514535
2160.00,  0.513386
2162.00,  0.512100
2164.00,  0.510913
2166.00,  0.509917
2168.00,  0.508834
2170.00,  0.507809
2172.00,  0.506864
2174.00,  0.505876
2176.00,  0.505097
2178.00,  0.504475
2180.00,  0.503984
2182.00,  0.503717
2184.00,  0.503286
2186.00,  0.502903
2188.00,  0.502413
2190.00,  0.502036
2192.00,  0.501696
2194.00,  0.501329
2196.00,  0.501176
2198.00,  0.501024
2200.00,  0.501056
2202.00,  0.501229
2204.00,  0.501372
2206.00,  0.501950
2208.00,  0.502706
2210.00,  0.503639
2212.00,  0.504817
2214.00,  0.506262
2216.00,  0.508104
2218.00,  0.510287
2220.00,  0.512790
2222.00,  0.515847
2224.00,  0.519493
2226.00,  0.523532
2228.00,  0.528132
2230.00,  0.533464
2232.00,  0.539563
2234.00,  0.546517
2236.00,  0.554369
2238.00,  0.563200
2240.00,  0.573092
2242.00,  0.584134
2244.00,  0.596046
2246.00,  0.608803
2248.00,  0.622100
2250.00,  0.635777
2252.00,  0.649284
2254.00,  0.662523
2256.00,  0.674966
2258.00,  0.686275
2260.00,  0.696693
2262.00,  0.705762
2264.00,  0.713815
2266.00,  0.720047
2268.00,  0.725163
2270.00,  0.729148
2272.00,  0.733053
2274.00,  0.736165
2276.00,  0.738873
2278.00,  0.740406
2280.00,  0.740908
2282.00,  0.740703
2284.00,  0.740170
2286.00,  0.739098
2288.00,  0.737824
2290.00,  0.735705
2292.00,  0.733358
2294.00,  0.730456
2296.00,  0.727248
2298.00,  0.724504
2300.00,  0.722193
2302.00,  0.720611
2304.00,  0.719089
2306.00,  0.718187
2308.00,  0.717743
2310.00,  0.716328
2312.00,  0.714739
2314.00,  0.711911
2316.00,  0.709061
2318.00,  0.705699
2320.00,  0.702789
2322.00,  0.700296
2324.00,  0.698620
2326.00,  0.697923
2328.00,  0.697782
2330.00,  0.698215
2332.00,  0.698994
2334.00,  0.700411
2336.00,  0.702233
2338.00,  0.704659
2340.00,  0.707725
2342.00,  0.711064
2344.00,  0.714152
2346.00,  0.716730
2348.00,  0.718908
2350.00,  0.719898
2352.00,  0.720132
2354.00,  0.719668
2356.00,  0.718712
2358.00,  0.716711
2360.00,  0.714163
2362.00,  0.711538
2364.00,  0.709220
2366.00,  0.706961
2368.00,  0.705378
2370.00,  0.704027
2372.00,  0.702705
2374.00,  0.701015
2376.00,  0.699136
2378.00,  0.697546
2380.00,  0.696833
2382.00,  0.696384
2384.00,  0.696240
2386.00,  0.696159
2388.00,  0.696009
2390.00,  0.695733
2392.00,  0.695695
2394.00,  0.695565
2396.00,  0.695693
2398.00,  0.696483
2400.00,  0.696504
2402.00,  0.696880
2404.00,  0.696780
2406.00,  0.697193
2408.00,  0.697573
2410.00,  0.698480
2412.00,  0.700604
2414.00,  0.703266
2416.00,  0.706902
2418.00,  0.711042
2420.00,  0.714875
2422.00,  0.719242
2424.00,  0.723149
2426.00,  0.727648
2428.00,  0.731631
2430.00,  0.735831
2432.00,  0.740544
2434.00,  0.744824
2436.00,  0.749653
2438.00,  0.754504
2440.00,  0.759335
2442.00,  0.764997
2444.00,  0.769711
2446.00,  0.775019
2448.00,  0.780812
2450.00,  0.785775
2452.00,  0.791506
2454.00,  0.797093
2456.00,  0.802813
2458.00,  0.808611
2460.00,  0.813453
2462.00,  0.819252
2464.00,  0.824850
2466.00,  0.830446
2468.00,  0.835319
2470.00,  0.840272
2472.00,  0.845211
2474.00,  0.849285
2476.00,  0.852573
2478.00,  0.855040
2480.00,  0.856688
2482.00,  0.858505
2484.00,  0.860179
2486.00,  0.861441
2488.00,  0.861886
2490.00,  0.862311
2492.00,  0.862236
2494.00,  0.862251
2496.00,  0.863390
2498.00,  0.863309
##END

##PRODUCT: Acetone_2
##SAMPLE NAME: LC1510899
##DATE: 03-Nov-2015
##TIME: 10:12:32
##Instrument S/N: 6123
##OPERATOR ID: 72124734
##SPECTROPHOTOMETER: NIRSystems Model 6500 
##AMPLIFIER: Reflectance
##NUMBER OF CONSTITUENTS: 0
##TRANSDUCER: 1,     0.000160
##TRANSDUCER: 2,     0.000034
##TRANSDUCER: 3,     2.927463
##SPECTRUM:
1100.00,  0.152707
1102.00,  0.152647
1104.00,  0.152660
1106.00,  0.152783
1108.00,  0.152968
1110.00,  0.153263
1112.00,  0.153625
1114.00,  0.154052
1116.00,  0.154550
1118.00,  0.155124
1120.00,  0.155759
1122.00,  0.156484
1124.00,  0.157305
1126.00,  0.158222
1128.00,  0.159289
1130.00,  0.160470
1132.00,  0.161706
1134.00,  0.163009
1136.00,  0.164286
1138.00,  0.165490
1140.00,  0.166641
1142.00,  0.167722
1144.00,  0.168747
1146.00,  0.169755
1148.00,  0.170745
1150.00,  0.171743
1152.00,  0.172840
1154.00,  0.173969
1156.00,  0.175250
1158.00,  0.176644
1160.00,  0.178107
1162.00,  0.179651
1164.00,  0.181154
1166.00,  0.182661
1168.00,  0.184109
1170.00,  0.185483
1172.00,  0.186764
1174.00,  0.187938
1176.00,  0.189007
1178.00,  0.189945
1180.00,  0.190788
1182.00,  0.191513
1184.00,  0.192195
1186.00,  0.192804
1188.00,  0.193418
1190.00,  0.194059
1192.00,  0.194760
1194.00,  0.195562
1196.00,  0.196442
1198.00,  0.197392
1200.00,  0.198372
1202.00,  0.199352
1204.00,  0.200284
1206.00,  0.201162
1208.00,  0.201971
1210.00,  0.202676
1212.00,  0.203327
1214.00,  0.203866
1216.00,  0.204327
1218.00,  0.204662
1220.00,  0.204872
1222.00,  0.204923
1224.00,  0.204807
1226.00,  0.204507
1228.00,  0.204034
1230.00,  0.203421
1232.00,  0.202683
1234.00,  0.201889
1236.00,  0.201022
1238.00,  0.200093
1240.00,  0.199147
1242.00,  0.198163
1244.00,  0.197153
1246.00,  0.196174
1248.00,  0.195184
1250.00,  0.194213
1252.00,  0.193310
1254.00,  0.192419
1256.00,  0.191616
1258.00,  0.190853
1260.00,  0.190165
1262.00,  0.189518
1264.00,  0.188926
1266.00,  0.188360
1268.00,  0.187832
1270.00,  0.187300
1272.00,  0.186800
1274.00,  0.186311
1276.00,  0.185832
1278.00,  0.185377
1280.00,  0.184932
1282.00,  0.184510
1284.00,  0.184105
1286.00,  0.183714
1288.00,  0.183370
1290.00,  0.182992
1292.00,  0.182648
1294.00,  0.182323
1296.00,  0.182019
1298.00,  0.181782
1300.00,  0.181579
1302.00,  0.181423
1304.00,  0.181310
1306.00,  0.181241
1308.00,  0.181231
1310.00,  0.181254
1312.00,  0.181352
1314.00,  0.181502
1316.00,  0.181689
1318.00,  0.181931
1320.00,  0.182234
1322.00,  0.182619
1324.00,  0.183088
1326.00,  0.183642
1328.00,  0.184338
1330.00,  0.185159
1332.00,  0.186142
1334.00,  0.187318
1336.00,  0.188612
1338.00,  0.190102
1340.00,  0.191731
1342.00,  0.193462
1344.00,  0.195266
1346.00,  0.197165
1348.00,  0.199094
1350.00,  0.201040
1352.00,  0.202933
1354.00,  0.204817
1356.00,  0.206643
1358.00,  0.208464
1360.00,  0.210311
1362.00,  0.212188
1364.00,  0.214109
1366.00,  0.216010
1368.00,  0.217833
1370.00,  0.219549
1372.00,  0.221088
1374.00,  0.222481
1376.00,  0.223766
1378.00,  0.224987
1380.00,  0.226249
1382.00,  0.227517
1384.00,  0.228828
1386.00,  0.230172
1388.00,  0.231554
1390.00,  0.232955
1392.00,  0.234383
1394.00,  0.235815
1396.00,  0.237315
1398.00,  0.238842
1400.00,  0.240483
1402.00,  0.242249
1404.00,  0.244179
1406.00,  0.246298
1408.00,  0.248627
1410.00,  0.251126
1412.00,  0.253805
1414.00,  0.256649
1416.00,  0.259653
1418.00,  0.262760
1420.00,  0.265902
1422.00,  0.269103
1424.00,  0.272346
1426.00,  0.275524
1428.00,  0.278730
1430.00,  0.281795
1432.00,  0.284698
1434.00,  0.287410
1436.00,  0.289971
1438.00,  0.292409
1440.00,  0.294731
1442.00,  0.297033
1444.00,  0.299274
1446.00,  0.301412
1448.00,  0.303658
1450.00,  0.305787
1452.00,  0.307797
1454.00,  0.309693
1456.00,  0.311410
1458.00,  0.312984
1460.00,  0.314413
1462.00,  0.315754
1464.00,  0.317059
1466.00,  0.318323
1468.00,  0.319621
1470.00,  0.320891
1472.00,  0.322050
1474.00,  0.323042
1476.00,  0.323765
1478.00,  0.324135
1480.00,  0.324150
1482.00,  0.323866
1484.00,  0.323351
1486.00,  0.322649
1488.00,  0.321892
1490.00,  0.321074
1492.00,  0.320277
1494.00,  0.319493
1496.00,  0.318741
1498.00,  0.318126
1500.00,  0.317522
1502.00,  0.317046
1504.00,  0.316635
1506.00,  0.316305
1508.00,  0.315992
1510.00,  0.315693
1512.00,  0.315367
1514.00,  0.315014
1516.00,  0.314602
1518.00,  0.314139
1520.00,  0.313588
1522.00,  0.312837
1524.00,  0.312066
1526.00,  0.311208
1528.00,  0.310307
1530.00,  0.309311
1532.00,  0.308332
1534.00,  0.307365
1536.00,  0.306461
1538.00,  0.305524
1540.00,  0.304721
1542.00,  0.304039
1544.00,  0.303467
1546.00,  0.302994
1548.00,  0.302659
1550.00,  0.302473
1552.00,  0.302377
1554.00,  0.302309
1556.00,  0.302295
1558.00,  0.302300
1560.00,  0.302300
1562.00,  0.302291
1564.00,  0.302320
1566.00,  0.302304
1568.00,  0.302248
1570.00,  0.302194
1572.00,  0.302099
1574.00,  0.302001
1576.00,  0.301886
1578.00,  0.301740
1580.00,  0.301501
1582.00,  0.301217
1584.00,  0.300838
1586.00,  0.300478
1588.00,  0.300063
1590.00,  0.299645
1592.00,  0.299230
1594.00,  0.298714
1596.00,  0.298121
1598.00,  0.297516
1600.00,  0.296855
1602.00,  0.296285
1604.00,  0.295648
1606.00,  0.295014
1608.00,  0.294366
1610.00,  0.293696
1612.00,  0.293053
1614.00,  0.292364
1616.00,  0.291711
1618.00,  0.291052
1620.00,  0.290459
1622.00,  0.289933
1624.00,  0.289545
1626.00,  0.289191
1628.00,  0.288982
1630.00,  0.288853
1632.00,  0.288783
1634.00,  0.288778
1636.00,  0.288821
1638.00,  0.288921
1640.00,  0.288998
1642.00,  0.289167
1644.00,  0.289427
1646.00,  0.289767
1648.00,  0.290304
1650.00,  0.291113
1652.00,  0.292273
1654.00,  0.293739
1656.00,  0.295538
1658.00,  0.297640
1660.00,  0.299863
1662.00,  0.302215
1664.00,  0.304610
1666.00,  0.307116
1668.00,  0.309784
1670.00,  0.312662
1672.00,  0.315785
1674.00,  0.319134
1676.00,  0.322548
1678.00,  0.325967
1680.00,  0.329095
1682.00,  0.331933
1684.00,  0.334407
1686.00,  0.336570
1688.00,  0.338693
1690.00,  0.340960
1692.00,  0.343511
1694.00,  0.346273
1696.00,  0.348918
1698.00,  0.351356
1700.00,  0.353500
1702.00,  0.355332
1704.00,  0.357027
1706.00,  0.358726
1708.00,  0.360501
1710.00,  0.362404
1712.00,  0.364375
1714.00,  0.366338
1716.00,  0.368135
1718.00,  0.369776
1720.00,  0.371176
1722.00,  0.372344
1724.00,  0.373408
1726.00,  0.374429
1728.00,  0.375229
1730.00,  0.375804
1732.00,  0.376010
1734.00,  0.375760
1736.00,  0.375065
1738.00,  0.373857
1740.00,  0.372214
1742.00,  0.370265
1744.00,  0.368091
1746.00,  0.365937
1748.00,  0.363970
1750.00,  0.362234
1752.00,  0.360863
1754.00,  0.359818
1756.00,  0.359054
1758.00,  0.358566
1760.00,  0.358279
1762.00,  0.358032
1764.00,  0.357899
1766.00,  0.357676
1768.00,  0.357483
1770.00,  0.357307
1772.00,  0.357232
1774.00,  0.357207
1776.00,  0.357315
1778.00,  0.357466
1780.00,  0.357776
1782.00,  0.358052
1784.00,  0.358402
1786.00,  0.358701
1788.00,  0.359046
1790.00,  0.359338
1792.00,  0.359579
1794.00,  0.359734
1796.00,  0.359722
1798.00,  0.359595
1800.00,  0.359308
1802.00,  0.358954
1804.00,  0.358509
1806.00,  0.358056
1808.00,  0.357631
1810.00,  0.357165
1812.00,  0.356699
1814.00,  0.356256
1816.00,  0.355796
1818.00,  0.355416
1820.00,  0.355077
1822.00,  0.354806
1824.00,  0.354589
1826.00,  0.354391
1828.00,  0.354112
1830.00,  0.353725
1832.00,  0.353320
1834.00,  0.352817
1836.00,  0.352226
1838.00,  0.351642
1840.00,  0.350982
1842.00,  0.350291
1844.00,  0.349667
1846.00,  0.348974
1848.00,  0.348330
1850.00,  0.347819
1852.00,  0.347367
1854.00,  0.347043
1856.00,  0.346856
1858.00,  0.346614
1860.00,  0.346450
1862.00,  0.346163
1864.00,  0.345939
1866.00,  0.345712
1868.00,  0.345546
1870.00,  0.345557
1872.00,  0.345767
1874.00,  0.346184
1876.00,  0.346785
1878.00,  0.347626
1880.00,  0.348785
1882.00,  0.350483
1884.00,  0.352710
1886.00,  0.355575
1888.00,  0.359087
1890.00,  0.363444
1892.00,  0.368323
1894.00,  0.373640
1896.00,  0.379516
1898.00,  0.385532
1900.00,  0.391722
1902.00,  0.397968
1904.00,  0.404020
1906.00,  0.409888
1908.00,  0.415337
1910.00,  0.420469
1912.00,  0.425292
1914.00,  0.429642
1916.00,  0.433821
1918.00,  0.437646
1920.00,  0.441192
1922.00,  0.444378
1924.00,  0.447209
1926.00,  0.449467
1928.00,  0.451218
1930.00,  0.452083
1932.00,  0.452288
1934.00,  0.451616
1936.00,  0.449972
1938.00,  0.447731
1940.00,  0.444963
1942.00,  0.441878
1944.00,  0.438576
1946.00,  0.435336
1948.00,  0.432104
1950.00,  0.429038
1952.00,  0.426209
1954.00,  0.423568
1956.00,  0.421233
1958.00,  0.418994
1960.00,  0.416960
1962.00,  0.415059
1964.00,  0.413307
1966.00,  0.411659
1968.00,  0.410069
1970.00,  0.408602
1972.00,  0.407252
1974.00,  0.405974
1976.00,  0.404839
1978.00,  0.403805
1980.00,  0.402787
1982.00,  0.401866
1984.00,  0.401098
1986.00,  0.400449
1988.00,  0.399927
1990.00,  0.399490
1992.00,  0.399186
1994.00,  0.398965
1996.00,  0.398848
1998.00,  0.398819
2000.00,  0.398936
2002.00,  0.399239
2004.00,  0.399603
2006.00,  0.400134
2008.00,  0.400870
2010.00,  0.401835
2012.00,  0.403013
2014.00,  0.404421
2016.00,  0.406204
2018.00,  0.408215
2020.00,  0.410436
2022.00,  0.413075
2024.00,  0.415951
2026.00,  0.419077
2028.00,  0.422466
2030.00,  0.426069
2032.00,  0.429980
2034.00,  0.434125
2036.00,  0.438549
2038.00,  0.443185
2040.00,  0.448256
2042.00,  0.453563
2044.00,  0.458990
2046.00,  0.464554
2048.00,  0.470202
2050.00,  0.475814
2052.00,  0.481115
2054.00,  0.486333
2056.00,  0.491189
2058.00,  0.495901
2060.00,  0.500464
2062.00,  0.505068
2064.00,  0.509414
2066.00,  0.513750
2068.00,  0.517710
2070.00,  0.521224
2072.00,  0.524566
2074.00,  0.527552
2076.00,  0.530457
2078.00,  0.533439
2080.00,  0.536427
2082.00,  0.539594
2084.00,  0.542988
2086.00,  0.546411
2088.00,  0.550022
2090.00,  0.553657
2092.00,  0.557213
2094.00,  0.560880
2096.00,  0.564140
2098.00,  0.567059
2100.00,  0.569473
2102.00,  0.571051
2104.00,  0.572138
2106.00,  0.572512
2108.00,  0.572332
2110.00,  0.571543
2112.00,  0.570252
2114.00,  0.568654
2116.00,  0.567042
2118.00,  0.565743
2120.00,  0.564636
2122.00,  0.563414
2124.00,  0.562254
2126.00,  0.560578
2128.00,  0.558425
2130.00,  0.555587
2132.00,  0.552437
2134.00,  0.548903
2136.00,  0.545422
2138.00,  0.541703
2140.00,  0.538184
2142.00,  0.534662
2144.00,  0.531419
2146.00,  0.528509
2148.00,  0.525897
2150.00,  0.523744
2152.00,  0.522082
2154.00,  0.520855
2156.00,  0.519658
2158.00,  0.518332
2160.00,  0.517048
2162.00,  0.515849
2164.00,  0.514802
2166.00,  0.513568
2168.00,  0.512462
2170.00,  0.511188
2172.00,  0.510126
2174.00,  0.509058
2176.00,  0.508093
2178.00,  0.507595
2180.00,  0.507101
2182.00,  0.506612
2184.00,  0.506177
2186.00,  0.505832
2188.00,  0.505318
2190.00,  0.504879
2192.00,  0.504370
2194.00,  0.504004
2196.00,  0.503801
2198.00,  0.503662
2200.00,  0.503725
2202.00,  0.503748
2204.00,  0.504116
2206.00,  0.504689
2208.00,  0.505485
2210.00,  0.506470
2212.00,  0.507619
2214.00,  0.509230
2216.00,  0.511079
2218.00,  0.513289
2220.00,  0.515991
2222.00,  0.519156
2224.00,  0.522904
2226.00,  0.527114
2228.00,  0.532080
2230.00,  0.537590
2232.00,  0.543926
2234.00,  0.551340
2236.00,  0.559344
2238.00,  0.568718
2240.00,  0.579088
2242.00,  0.590511
2244.00,  0.602812
2246.00,  0.616059
2248.00,  0.630101
2250.00,  0.644322
2252.00,  0.658263
2254.00,  0.671908
2256.00,  0.684701
2258.00,  0.696701
2260.00,  0.707559
2262.00,  0.717165
2264.00,  0.725732
2266.00,  0.732466
2268.00,  0.738017
2270.00,  0.742760
2272.00,  0.746842
2274.00,  0.750187
2276.00,  0.753096
2278.00,  0.754763
2280.00,  0.755377
2282.00,  0.755418
2284.00,  0.754741
2286.00,  0.753391
2288.00,  0.752063
2290.00,  0.750031
2292.00,  0.747384
2294.00,  0.744233
2296.00,  0.740471
2298.00,  0.737398
2300.00,  0.735152
2302.00,  0.733339
2304.00,  0.732074
2306.00,  0.731350
2308.00,  0.730977
2310.00,  0.729826
2312.00,  0.728234
2314.00,  0.724972
2316.00,  0.721519
2318.00,  0.717898
2320.00,  0.714369
2322.00,  0.711508
2324.00,  0.709352
2326.00,  0.708706
2328.00,  0.708297
2330.00,  0.708850
2332.00,  0.709710
2334.00,  0.711028
2336.00,  0.713255
2338.00,  0.715643
2340.00,  0.718776
2342.00,  0.722250
2344.00,  0.725767
2346.00,  0.728822
2348.00,  0.731437
2350.00,  0.732513
2352.00,  0.732894
2354.00,  0.732277
2356.00,  0.730855
2358.00,  0.728930
2360.00,  0.726064
2362.00,  0.723107
2364.00,  0.720272
2366.00,  0.718158
2368.00,  0.716458
2370.00,  0.714813
2372.00,  0.713516
2374.00,  0.711840
2376.00,  0.709863
2378.00,  0.708365
2380.00,  0.707580
2382.00,  0.706970
2384.00,  0.706799
2386.00,  0.706424
2388.00,  0.706605
2390.00,  0.706618
2392.00,  0.706310
2394.00,  0.706517
2396.00,  0.706704
2398.00,  0.706958
2400.00,  0.707141
2402.00,  0.707301
2404.00,  0.707367
2406.00,  0.707322
2408.00,  0.708054
2410.00,  0.708958
2412.00,  0.710881
2414.00,  0.713964
2416.00,  0.717094
2418.00,  0.721440
2420.00,  0.725457
2422.00,  0.729769
2424.00,  0.734185
2426.00,  0.738397
2428.00,  0.742847
2430.00,  0.747649
2432.00,  0.752224
2434.00,  0.756878
2436.00,  0.762002
2438.00,  0.766858
2440.00,  0.772092
2442.00,  0.777713
2444.00,  0.782685
2446.00,  0.787865
2448.00,  0.793375
2450.00,  0.799001
2452.00,  0.804220
2454.00,  0.809929
2456.00,  0.816260
2458.00,  0.821941
2460.00,  0.827667
2462.00,  0.833056
2464.00,  0.838495
2466.00,  0.844168
2468.00,  0.849604
2470.00,  0.854293
2472.00,  0.859051
2474.00,  0.863004
2476.00,  0.867218
2478.00,  0.869698
2480.00,  0.871431
2482.00,  0.872797
2484.00,  0.874152
2486.00,  0.874996
2488.00,  0.876225
2490.00,  0.876303
2492.00,  0.876461
2494.00,  0.876917
2496.00,  0.877620
2498.00,  0.877019
##END

##PRODUCT: Acetone_2
##SAMPLE NAME: LC1510899 - TW1
##DATE: 06-Nov-2015
##TIME:  8: 3:58
##Instrument S/N: 6123
##OPERATOR ID: 72124734
##SPECTROPHOTOMETER: NIRSystems Model 6500 
##AMPLIFIER: Reflectance
##NUMBER OF CONSTITUENTS: 0
##TRANSDUCER: 1,     0.000140
##TRANSDUCER: 2,     0.000037
##TRANSDUCER: 3,     2.927469
##SPECTRUM:
1100.00,  0.156595
1102.00,  0.156557
1104.00,  0.156579
1106.00,  0.156698
1108.00,  0.156903
1110.00,  0.157181
1112.00,  0.157527
1114.00,  0.157949
1116.00,  0.158412
1118.00,  0.158976
1120.00,  0.159589
1122.00,  0.160273
1124.00,  0.161096
1126.00,  0.161988
1128.00,  0.163020
1130.00,  0.164155
1132.00,  0.165368
1134.00,  0.166622
1136.00,  0.167867
1138.00,  0.169036
1140.00,  0.170170
1142.00,  0.171228
1144.00,  0.172230
1146.00,  0.173234
1148.00,  0.174206
1150.00,  0.175215
1152.00,  0.176300
1154.00,  0.177411
1156.00,  0.178674
1158.00,  0.180044
1160.00,  0.181479
1162.00,  0.182997
1164.00,  0.184509
1166.00,  0.185984
1168.00,  0.187435
1170.00,  0.188775
1172.00,  0.190049
1174.00,  0.191215
1176.00,  0.192266
1178.00,  0.193202
1180.00,  0.194030
1182.00,  0.194776
1184.00,  0.195441
1186.00,  0.196048
1188.00,  0.196678
1190.00,  0.197334
1192.00,  0.198041
1194.00,  0.198840
1196.00,  0.199715
1198.00,  0.200663
1200.00,  0.201641
1202.00,  0.202616
1204.00,  0.203556
1206.00,  0.204438
1208.00,  0.205233
1210.00,  0.205982
1212.00,  0.206632
1214.00,  0.207199
1216.00,  0.207667
1218.00,  0.207992
1220.00,  0.208214
1222.00,  0.208292
1224.00,  0.208183
1226.00,  0.207910
1228.00,  0.207455
1230.00,  0.206865
1232.00,  0.206156
1234.00,  0.205373
1236.00,  0.204546
1238.00,  0.203663
1240.00,  0.202736
1242.00,  0.201762
1244.00,  0.200786
1246.00,  0.199817
1248.00,  0.198837
1250.00,  0.197907
1252.00,  0.197009
1254.00,  0.196127
1256.00,  0.195347
1258.00,  0.194603
1260.00,  0.193921
1262.00,  0.193289
1264.00,  0.192712
1266.00,  0.192175
1268.00,  0.191646
1270.00,  0.191153
1272.00,  0.190662
1274.00,  0.190185
1276.00,  0.189705
1278.00,  0.189259
1280.00,  0.188818
1282.00,  0.188424
1284.00,  0.188029
1286.00,  0.187668
1288.00,  0.187268
1290.00,  0.186924
1292.00,  0.186584
1294.00,  0.186254
1296.00,  0.185968
1298.00,  0.185732
1300.00,  0.185544
1302.00,  0.185379
1304.00,  0.185286
1306.00,  0.185206
1308.00,  0.185201
1310.00,  0.185253
1312.00,  0.185345
1314.00,  0.185483
1316.00,  0.185665
1318.00,  0.185912
1320.00,  0.186208
1322.00,  0.186577
1324.00,  0.187033
1326.00,  0.187569
1328.00,  0.188230
1330.00,  0.189031
1332.00,  0.189985
1334.00,  0.191120
1336.00,  0.192379
1338.00,  0.193850
1340.00,  0.195417
1342.00,  0.197111
1344.00,  0.198906
1346.00,  0.200760
1348.00,  0.202679
1350.00,  0.204577
1352.00,  0.206441
1354.00,  0.208282
1356.00,  0.210072
1358.00,  0.211868
1360.00,  0.213674
1362.00,  0.215517
1364.00,  0.217402
1366.00,  0.219283
1368.00,  0.221076
1370.00,  0.222783
1372.00,  0.224307
1374.00,  0.225671
1376.00,  0.226961
1378.00,  0.228163
1380.00,  0.229413
1382.00,  0.230621
1384.00,  0.231906
1386.00,  0.233219
1388.00,  0.234534
1390.00,  0.235866
1392.00,  0.237253
1394.00,  0.238618
1396.00,  0.240009
1398.00,  0.241446
1400.00,  0.242978
1402.00,  0.244655
1404.00,  0.246448
1406.00,  0.248462
1408.00,  0.250687
1410.00,  0.253066
1412.00,  0.255695
1414.00,  0.258456
1416.00,  0.261388
1418.00,  0.264423
1420.00,  0.267550
1422.00,  0.270718
1424.00,  0.273923
1426.00,  0.277073
1428.00,  0.280278
1430.00,  0.283260
1432.00,  0.286137
1434.00,  0.288833
1436.00,  0.291320
1438.00,  0.293753
1440.00,  0.296092
1442.00,  0.298368
1444.00,  0.300535
1446.00,  0.302751
1448.00,  0.304967
1450.00,  0.307115
1452.00,  0.309120
1454.00,  0.310990
1456.00,  0.312717
1458.00,  0.314270
1460.00,  0.315687
1462.00,  0.317050
1464.00,  0.318350
1466.00,  0.319627
1468.00,  0.320927
1470.00,  0.322193
1472.00,  0.323365
1474.00,  0.324356
1476.00,  0.325076
1478.00,  0.325426
1480.00,  0.325483
1482.00,  0.325217
1484.00,  0.324739
1486.00,  0.324072
1488.00,  0.323350
1490.00,  0.322600
1492.00,  0.321852
1494.00,  0.321056
1496.00,  0.320386
1498.00,  0.319769
1500.00,  0.319219
1502.00,  0.318750
1504.00,  0.318376
1506.00,  0.318014
1508.00,  0.317695
1510.00,  0.317371
1512.00,  0.316988
1514.00,  0.316600
1516.00,  0.316226
1518.00,  0.315740
1520.00,  0.315140
1522.00,  0.314449
1524.00,  0.313706
1526.00,  0.312872
1528.00,  0.311985
1530.00,  0.311146
1532.00,  0.310184
1534.00,  0.309280
1536.00,  0.308446
1538.00,  0.307595
1540.00,  0.306839
1542.00,  0.306190
1544.00,  0.305677
1546.00,  0.305280
1548.00,  0.305006
1550.00,  0.304846
1552.00,  0.304773
1554.00,  0.304755
1556.00,  0.304767
1558.00,  0.304799
1560.00,  0.304827
1562.00,  0.304851
1564.00,  0.304890
1566.00,  0.304897
1568.00,  0.304845
1570.00,  0.304796
1572.00,  0.304737
1574.00,  0.304624
1576.00,  0.304522
1578.00,  0.304367
1580.00,  0.304165
